frame_idx,t_rppg,rppg_n,t_gt_pair,ppg_n_pair,lag_samples,lag_frames
0,0.0,0.03696307829042067,-0.033763970264746666,-0.07992109858421442,1.0,29.61737
1,0.033763970264746666,0.42673150462906534,0.0,-0.07992109858421442,1.0,29.61737
2,0.06752794052949333,0.6549303391668884,0.033763970264746666,0.782332285421666,1.0,29.61737
3,0.10129191079423999,0.7072036096129606,0.06752794052949332,1.374247512033852,1.0,29.61737
4,0.13505588105898667,0.7405476698455553,0.10129191079423999,1.5485164969850898,1.0,29.61737
5,0.16881985132373334,0.9677248913351151,0.13505588105898667,1.3374200492218165,1.0,29.61737
6,0.20258382158847998,1.4887228247198205,0.1688198513237333,0.9168074785765761,1.0,29.61737
7,0.23634779185322666,2.196627294557074,0.20258382158847998,0.5052840691473787,1.0,29.61737
8,0.27011176211797333,2.824757082050272,0.23634779185322666,0.2579794657406102,1.0,29.61737
9,0.30387573238272,3.097314767823402,0.27011176211797333,0.20891698746989676,1.0,29.61737
10,0.3376397026474667,2.880762335220434,0.30387573238272003,0.2825733580916736,1.0,29.61737
11,0.3714036729122133,2.246349927431336,0.3376397026474667,0.35634796722130657,1.0,29.61737
12,0.40516764317695997,1.4185734684356983,0.3714036729122133,0.3327179197524315,1.0,29.61737
13,0.43893161344170667,0.6492211195481378,0.40516764317696,0.18222737725176708,1.0,29.61737
14,0.4726955837064533,0.08994827070277389,0.43893161344170667,-0.05921659425408463,1.0,29.61737
15,0.5064595539712,-0.26983955051924496,0.47269558370645337,-0.3279038064302681,1.0,29.61737
16,0.5402235242359467,-0.5710207447960085,0.5064595539712,-0.5764977561587589,1.0,29.61737
17,0.5739874945006933,-0.9805614659175705,0.5402235242359467,-0.7965952202780746,1.0,29.61737
18,0.60775146476544,-1.5743762092078653,0.5739874945006933,-1.006820083121321,1.0,29.61737
19,0.6415154350301867,-2.2719551159200337,0.6077514647654401,-1.215606042380384,1.0,29.61737
20,0.6752794052949334,-2.859794836932315,0.6415154350301867,-1.3850090289732309,1.0,29.61737
21,0.70904337555968,-3.093791623821866,0.6752794052949334,-1.424418765509981,1.0,29.61737
22,0.7428073458244266,-2.8270607647964856,0.70904337555968,-1.2274006162559967,1.0,29.61737
23,0.7765713160891733,-2.0937815021051867,0.7428073458244266,-0.7374537259504405,1.0,29.61737
24,0.8103352863539199,-1.1032080999484037,0.7765713160891733,-0.004864381373740108,1.0,29.61737
25,0.8440992566186667,-0.14728005058188406,0.81033528635392,0.8055991358587061,1.0,29.61737
26,0.8778632268834133,0.5289314734582655,0.8440992566186667,1.4712308575623898,1.0,29.61737
27,0.91162719714816,0.8267744612347592,0.8778632268834133,1.8076809818811361,1.0,29.61737
28,0.9453911674129066,0.8150168467289279,0.91162719714816,1.7530477547409389,1.0,29.61737
29,0.9791551376776533,0.6691474193502442,0.9453911674129066,1.3925774963989708,1.0,29.61737
30,1.0129191079424,0.5707726157994166,0.9791551376776534,0.9110712774698749,1.0,29.61737
31,1.0466830782071466,0.6239763273994662,1.0129191079423998,0.5009566151510235,1.0,29.61737
32,1.0804470484718933,0.8244242304298532,1.0466830782071466,0.27624555607677564,1.0,29.61737
33,1.11421101873664,1.0815351031808653,1.0804470484718933,0.23523625420014813,1.0,29.61737
34,1.1479749890013866,1.2698711200062944,1.1142110187366399,0.284865438581643,1.0,29.61737
35,1.1817389592661334,1.2814130994678674,1.1479749890013866,0.3055573345214727,1.0,29.61737
36,1.21550292953088,1.0598141739657845,1.1817389592661331,0.21627827697376278,1.0,29.61737
37,1.2492668997956267,0.6124488510591822,1.21550292953088,0.004758331992495696,1.0,29.61737
38,1.2830308700603734,0.007077357372706165,1.2492668997956267,-0.2873372864047266,1.0,29.61737
39,1.31679484032512,-0.6401925247819639,1.2830308700603732,-0.6058847373100977,1.0,29.61737
40,1.3505588105898667,-1.1871230938041182,1.31679484032512,-0.9189876567542163,1.0,29.61737
41,1.3843227808546132,-1.5012636015512562,1.3505588105898665,-1.2190726547005184,1.0,29.61737
42,1.41808675111936,-1.502136162066634,1.3843227808546132,-1.4923199615769323,1.0,29.61737
43,1.4518507213841065,-1.1907230322011984,1.4180867511193598,-1.6826940113836035,1.0,29.61737
44,1.4856146916488533,-0.6503916470587193,1.4518507213841065,-1.6872576910917267,1.0,29.61737
45,1.5193786619136,-0.018755214968257168,1.4856146916488533,-1.4009692171022488,1.0,29.61737
46,1.5531426321783466,0.5565082686253139,1.5193786619135998,-0.79171031129755,1.0,29.61737
47,1.5869066024430933,0.9610888563427097,1.5531426321783466,0.04422279290903991,1.0,29.61737
48,1.6206705727078399,1.1430814056861025,1.5869066024430931,0.8932241108161634,1.0,29.61737
49,1.6544345429725866,1.1190364172077147,1.6206705727078399,1.5090512222756807,1.0,29.61737
50,1.6881985132373334,0.9552715225470765,1.6544345429725866,1.7271778980034205,1.0,29.61737
51,1.72196248350208,0.732809529481732,1.6881985132373332,1.5417052804119038,1.0,29.61737
52,1.7557264537668267,0.5136118264405417,1.72196248350208,1.0999518907355001,1.0,29.61737
53,1.7894904240315732,0.3258739315217326,1.7557264537668265,0.6206136709717154,1.0,29.61737
54,1.82325439429632,0.1733325080021742,1.7894904240315732,0.28512245969516103,1.0,29.61737
55,1.8570183645610667,0.05536282157172177,1.82325439429632,0.162048502616682,1.0,29.61737
56,1.8907823348258133,-0.023743007307995504,1.8570183645610665,0.19915370341150507,1.0,29.61737
57,1.92454630509056,-0.06697252685782853,1.8907823348258133,0.27620729505058833,1.0,29.61737
58,1.9583102753553066,-0.10600868313756068,1.9245463050905598,0.2797156866521942,1.0,29.61737
59,1.9920742456200533,-0.2050795376253493,1.9583102753553066,0.15543234502716477,1.0,29.61737
60,2.0258382158848,-0.43017394608959153,1.9920742456200533,-0.0843455951710067,1.0,29.61737
61,2.059602186149547,-0.7964383421335236,2.0258382158848,-0.3901443810530868,1.0,29.61737
62,2.093366156414293,-1.2323075681804494,2.0596021861495464,-0.7117249763801046,1.0,29.61737
63,2.12713012667904,-1.5947474252171554,2.093366156414293,-1.0135870073735525,1.0,29.61737
64,2.1608940969437866,-1.7347204767891802,2.43100585906176,1.3944196799948072,-8.0,-236.93896
65,2.1946580672085334,-1.5741350618547938,2.4647698293265066,1.007762733462016,-8.0,-236.93896
66,2.22842203747328,-1.146348227532473,2.4985337995912533,0.5840859509444705,-8.0,-236.93896
67,2.2621860077380265,-0.5769910865212422,2.5322977698559996,0.2720445707925977,-8.0,-236.93896
68,2.2959499780027732,-0.01978896923034378,2.5660617401207464,0.12813580435996924,-8.0,-236.93896
69,2.32971394826752,0.4129405195568567,2.2959499780027732,0.1853962572186997,1.0,29.61737
70,2.3634779185322667,0.6870262739659948,2.32971394826752,0.8944412386656382,1.0,29.61737
71,2.3972418887970135,0.8360577773253838,2.3634779185322667,1.3976011879851609,1.0,29.61737
72,2.43100585906176,0.9184347810916628,2.397241888797013,1.5648933470610256,1.0,29.61737
73,2.4647698293265066,0.9732360115017116,2.43100585906176,1.3944196799948072,1.0,29.61737
74,2.4985337995912533,1.0025418753811797,2.4647698293265066,1.007762733462016,1.0,29.61737
75,2.532297769856,0.987213394644125,2.4985337995912533,0.5840859509444705,1.0,29.61737
76,2.566061740120747,0.9197221967991888,2.532297769856,0.2720445707925936,1.0,29.61737
77,2.599825710385493,0.8269603648803746,2.5660617401207464,0.12813580435996924,1.0,29.61737
78,2.63358968065024,0.7637054628407189,2.599825710385493,0.11046847709453778,1.0,29.61737
79,2.6673536509149867,0.7772416214795494,2.63358968065024,0.12312397117885593,1.0,29.61737
80,2.7011176211797334,0.8637172732454195,2.6673536509149867,0.07926484325789714,1.0,29.61737
81,2.7348815914444797,0.9458975619483948,2.701117621179733,-0.05463462433044579,1.0,29.61737
82,2.7686455617092265,0.8939288570493945,2.7348815914444797,-0.25468971505168003,1.0,29.61737
83,2.8024095319739732,0.5881168326258266,2.7686455617092265,-0.4701898404402469,1.0,29.61737
84,2.83617350223872,-0.004208500108556875,2.8024095319739732,-0.6630335798026225,1.0,29.61737
85,2.8699374725034668,-0.782771457633255,2.83617350223872,-0.8276188183952276,1.0,29.61737
86,2.903701442768213,-1.5369688358530023,2.8699374725034663,-0.9783879941489941,1.0,29.61737
87,2.93746541303296,-2.0369999364063838,2.903701442768213,-1.1157784387606275,1.0,29.61737
88,2.9712293832977066,-2.144689039988772,2.93746541303296,-1.198063644590444,1.0,29.61737
89,3.0049933535624533,-1.87498675510436,2.9712293832977066,-1.145226738075448,1.0,29.61737
90,3.0387573238272,-1.3706938464368845,3.0049933535624533,-0.8806316376743032,1.0,29.61737
91,3.0725212940919464,-0.813170461318253,3.0387573238271997,-0.3885281511201185,1.0,29.61737
92,3.106285264356693,-0.3319685324030933,3.0725212940919464,0.25074660826101963,1.0,29.61737
93,3.14004923462144,0.03214047732620669,3.106285264356693,0.8768826945969956,1.0,29.61737
94,3.1738132048861867,0.3018711009800012,3.14004923462144,1.31496805183839,1.0,29.61737
95,3.2075771751509334,0.5118258000154228,3.1738132048861867,1.4555329051038248,1.0,29.61737
96,3.2413411454156797,0.6758787134802079,3.207577175150933,1.303709886241247,1.0,29.61737
97,3.2751051156804265,0.7898238702772258,3.2413411454156797,0.9701877042286291,1.0,29.61737
98,3.3088690859451733,0.8504937887169272,3.2751051156804265,0.6111195962683498,1.0,29.61737
99,3.34263305620992,0.8649360628199363,3.3088690859451733,0.35220418499844397,1.0,29.61737
100,3.3763970264746668,0.8429758321035845,3.34263305620992,0.2376217255200481,1.0,29.61737
101,3.410160996739413,0.7863431870911095,3.3763970264746663,0.22679903825298106,1.0,29.61737
102,3.44392496700416,0.6878610604427423,3.410160996739413,0.2337894345415807,1.0,29.61737
103,3.4776889372689066,0.5402581804536127,3.44392496700416,0.18212187671281008,1.0,29.61737
104,3.5114529075336534,0.3435318113076596,3.4776889372689066,0.043459394338921674,1.0,29.61737
105,3.5452168777984,0.10272140859400875,3.5114529075336534,-0.15830316928177932,1.0,29.61737
106,3.5789808480631464,-0.17971816015849654,3.5452168777983997,-0.37400114941044255,1.0,29.61737
107,3.612744818327893,-0.5042401669326011,3.5789808480631464,-0.5660384858144839,1.0,29.61737
108,3.64650878859264,-0.8598446040208151,3.612744818327893,-0.7297544640485871,1.0,29.61737
109,3.6802727588573867,-1.2032524105294478,3.64650878859264,-0.8850103576761928,1.0,29.61737
110,3.7140367291221335,-1.4511863014381963,3.6802727588573867,-1.0436731789361227,1.0,29.61737
111,3.7478006993868798,-1.5012522627473393,3.714036729122133,-1.1762802413624927,1.0,29.61737
112,3.7815646696516265,-1.2790147384455837,3.7478006993868798,-1.2052403827569937,1.0,29.61737
113,3.8153286399163733,-0.7883846270351043,3.7815646696516265,-1.0376803964978156,1.0,29.61737
114,3.84909261018112,-0.1330898670961917,3.8153286399163733,-0.6247175180505503,1.0,29.61737
115,3.882856580445867,0.5120518509376977,3.84909261018112,-0.011707453176563338,1.0,29.61737
116,3.916620550710613,0.9728336817324951,3.8828565804458663,0.6570801356614532,1.0,29.61737
117,3.95038452097536,1.1537008547871288,3.916620550710613,1.1911294867895397,1.0,29.61737
118,3.9841484912401066,1.0767819029481838,3.95038452097536,1.4390839307946144,1.0,29.61737
119,4.017912461504853,0.8585818498434904,3.984148491240106,1.359303597073318,1.0,29.61737
120,4.0516764317696,0.6403639315302998,4.017912461504854,1.0352375428678013,1.0,29.61737
121,4.085440402034346,0.5160857293160769,4.0516764317696,0.6280546552403043,1.0,29.61737
122,4.119204372299094,0.4987903286774607,4.085440402034347,0.2951271840222471,1.0,29.61737
123,4.15296834256384,0.5376448168822267,4.119204372299094,0.11992073325018938,1.0,29.61737
124,4.186732312828586,0.5648006919154969,4.15296834256384,0.08835999650246718,1.0,29.61737
125,4.2204962830933335,0.5359846050342911,4.186732312828587,0.11763949024300649,1.0,29.61737
126,4.25426025335808,0.4405624062464584,4.186732312828586,0.11763949024300659,2.0,59.23474
127,4.288024223622827,0.28446564142778397,4.2204962830933335,0.11409727470055739,2.0,59.23474
128,4.321788193887573,0.0692582332374172,4.25426025335808,0.0239230508911974,2.0,59.23474
129,4.35555216415232,-0.2114264001562328,4.288024223622826,-0.14993688387412393,2.0,59.23474
130,4.389316134417067,-0.5547500226381097,4.321788193887573,-0.3670470665424306,2.0,59.23474
131,4.423080104681813,-0.9253089247423149,4.35555216415232,-0.5844669185015,2.0,59.23474
132,4.45684407494656,-1.2463129687162624,4.389316134417067,-0.7798036558608191,2.0,59.23474
133,4.490608045211307,-1.4183296120041955,4.423080104681813,-0.9467975171495967,2.0,59.23474
134,4.524372015476053,-1.3614591817258572,4.456844074946559,-1.0705051528411789,2.0,59.23474
135,4.5581359857408,-1.0598802228669189,4.490608045211307,-1.106525301718067,2.0,59.23474
136,4.5918999560055465,-0.5817446163703167,4.524372015476053,-0.9880865674406012,2.0,59.23474
137,4.625663926270294,-0.05837936157073154,4.5581359857408,-0.6649959495119174,2.0,59.23474
138,4.65942789653504,0.3697218773479905,4.5918999560055465,-0.15198388018814318,2.0,59.23474
139,4.693191866799786,0.6117025995455772,4.625663926270293,0.4495413664867142,2.0,59.23474
140,4.7269558370645335,0.658807946413377,4.65942789653504,0.979908266615744,2.0,59.23474
141,4.76071980732928,0.5760346118962328,4.693191866799786,1.2905837783935237,2.0,59.23474
142,4.794483777594027,0.4607698358700992,4.7269558370645335,1.3153653633812612,2.0,59.23474
143,4.828247747858773,0.39072414394155497,4.76071980732928,1.1001915090505714,2.0,59.23474
144,4.86201171812352,0.3864996813647807,4.828247747858773,0.4797672316317757,1.0,29.61737
145,4.895775688388267,0.407103145084533,4.8620117181235205,0.3051703578534897,1.0,29.61737
146,4.929539658653013,0.3819495248301472,4.895775688388267,0.2512085991576837,1.0,29.61737
147,4.96330362891776,0.2643965353234385,4.929539658653014,0.24897318770814128,1.0,29.61737
148,4.997067599182507,0.07593677226369164,4.96330362891776,0.21025246377269988,1.0,29.61737
149,5.030831569447253,-0.09254379580329254,4.9633036289177594,0.2102524637727009,2.0,59.23474
150,5.064595539712,-0.13462635743103907,4.997067599182507,0.08024533702668574,2.0,59.23474
151,5.0983595099767465,-0.009353485991060352,5.030831569447253,-0.13605411554341298,2.0,59.23474
152,5.132123480241494,0.20800928971550373,5.064595539712,-0.3846090346273739,2.0,59.23474
153,5.16588745050624,0.35077516450404794,5.132123480241494,-0.7430990806796902,1.0,29.61737
154,5.199651420770986,0.25528686114861215,5.16588745050624,-0.8234307752644028,1.0,29.61737
155,5.2334153910357335,-0.13301438494220955,5.199651420770987,-0.8818980210977165,1.0,29.61737
156,5.26717936130048,-0.711933400857734,5.199651420770986,-0.8818980210977146,2.0,59.23474
157,5.300943331565226,-1.2659297587254026,5.233415391035733,-0.9557215716713523,2.0,59.23474
158,5.334707301829973,-1.5741499605157545,5.26717936130048,-1.0400806633376944,2.0,59.23474
159,5.36847127209472,-1.5178100807834844,5.300943331565226,-1.0748720615574836,2.0,59.23474
160,5.402235242359467,-1.1275781561135043,5.334707301829973,-0.9696748464661726,2.0,59.23474
161,5.435999212624213,-0.5528538054528327,5.36847127209472,-0.6576639683310674,2.0,59.23474
162,5.4697631828889595,0.019980320860605888,5.402235242359466,-0.1482442418342701,2.0,59.23474
163,5.503527153153707,0.45169938604603216,5.435999212624213,0.45628947435580386,2.0,59.23474
164,5.537291123418453,0.6968678283796943,5.4697631828889595,0.9961004082893983,2.0,59.23474
165,5.5710550936832,0.7990677642472552,5.503527153153707,1.3250737375268649,2.0,59.23474
166,5.6048190639479465,0.8464139288517335,5.537291123418453,1.37804458904651,2.0,59.23474
167,5.638583034212693,0.9144651449482666,5.571055093683199,1.195878251855873,2.0,59.23474
168,5.67234700447744,1.0260018606853862,5.638583034212694,0.6112714466793379,1.0,29.61737
169,5.706110974742186,1.1459455084475942,5.67234700447744,0.4244498923172703,1.0,29.61737
170,5.7398749450069335,1.2095815129607614,5.706110974742187,0.3444412175455982,1.0,29.61737
171,5.77363891527168,1.164271652508558,5.706110974742186,0.3444412175455989,2.0,59.23474
172,5.807402885536426,0.9993867213447261,5.739874945006933,0.3178843586383633,2.0,59.23474
173,5.841166855801173,0.7483194310814579,5.77363891527168,0.27175481733975965,2.0,59.23474
174,5.87493082606592,0.4636666036161308,5.807402885536426,0.15794180343274725,2.0,59.23474
175,5.908694796330667,0.18233395263438026,5.841166855801173,-0.02323798709790462,2.0,59.23474
176,5.942458766595413,-0.09640893530971845,5.87493082606592,-0.23032835738563448,2.0,59.23474
177,5.9762227368601595,-0.4040748212120714,5.908694796330666,-0.41142363714697566,2.0,59.23474
178,6.009986707124907,-0.7699421283874346,5.942458766595413,-0.5386640723361877,2.0,59.23474
179,6.043750677389653,-1.1832643406153054,5.9762227368601595,-0.6252315602775856,2.0,59.23474
180,6.0775146476544,-1.5768454315306206,6.009986707124907,-0.7132561713394472,2.0,59.23474
181,6.1112786179191465,-1.8450604872501095,6.043750677389653,-0.837970467823478,2.0,59.23474
182,6.145042588183893,-1.889021821115537,6.077514647654399,-0.9892891824870298,2.0,59.23474
183,6.17880655844864,-1.6665758474068892,6.1112786179191465,-1.097430109207255,2.0,59.23474
184,6.212570528713386,-1.2208046152997998,6.145042588183893,-1.0586192299802217,2.0,59.23474
185,6.2463344989781335,-0.6690303993067426,6.17880655844864,-0.7932147423863495,2.0,59.23474
186,6.28009846924288,-0.15361295385852675,6.212570528713386,-0.30461986732471924,2.0,59.23474
187,6.313862439507626,0.22200804848099903,6.246334498978133,0.2997514908079779,2.0,59.23474
188,6.347626409772373,0.43715410682023076,6.2463344989781335,0.29975149080799385,3.0,88.85211000000001
189,6.38139038003712,0.5517637702654058,6.28009846924288,0.845416801530157,3.0,88.85211000000001
190,6.415154350301867,0.6589032714742138,6.313862439507627,1.170041190283654,3.0,88.85211000000001
191,6.448918320566613,0.8210138873819894,6.347626409772373,1.200712962872647,3.0,88.85211000000001
192,6.4826822908313595,1.0301794847727244,6.38139038003712,0.9845869178803893,3.0,88.85211000000001
193,6.516446261096107,1.217056553519744,6.415154350301867,0.6567513672705946,3.0,88.85211000000001
194,6.550210231360853,1.2997190710055835,6.448918320566613,0.366645869017532,3.0,88.85211000000001
195,6.5839742016256,1.2366387997309047,6.48268229083136,0.2061060114453817,3.0,88.85211000000001
196,6.6177381718903465,1.0482027772918592,6.516446261096107,0.17672077371518544,3.0,88.85211000000001
197,6.651502142155093,0.796657411412278,6.550210231360853,0.20831346533063264,3.0,88.85211000000001
198,6.68526611241984,0.5424231998073284,6.5839742016256,0.21125164827267193,3.0,88.85211000000001
199,6.719030082684586,0.30588200509579283,6.6177381718903465,0.12940394691101964,3.0,88.85211000000001
200,6.7527940529493335,0.0569419807486346,6.651502142155094,-0.035070596218819056,3.0,88.85211000000001
201,6.78655802321408,-0.26136956287818786,6.68526611241984,-0.2342809287165413,3.0,88.85211000000001
202,6.820321993478826,-0.6867489944322481,6.719030082684586,-0.4115245356823775,3.0,88.85211000000001
203,6.854085963743573,-1.1935135645837869,6.7527940529493335,-0.5372468437175779,3.0,88.85211000000001
204,6.88784993400832,-1.6779659396345978,6.78655802321408,-0.6216901850327149,3.0,88.85211000000001
205,6.921613904273067,-1.9892046365048923,6.820321993478827,-0.6972537641470524,3.0,88.85211000000001
206,6.955377874537813,-1.9968467266518142,6.854085963743573,-0.7826708454373549,3.0,88.85211000000001
207,6.9891418448025595,-1.6608003089698802,6.88784993400832,-0.8536015106057055,3.0,88.85211000000001
208,7.022905815067307,-1.0600248585401388,6.921613904273067,-0.8425177499489481,3.0,88.85211000000001
209,7.056669785332053,-0.35921478825130626,6.955377874537813,-0.673881177573603,3.0,88.85211000000001
210,7.0904337555968,0.2678923479019904,6.98914184480256,-0.3168787252455153,3.0,88.85211000000001
211,7.1241977258615465,0.7122611116995998,7.022905815067307,0.1775475479998627,3.0,88.85211000000001
212,7.157961696126293,0.9592533544970112,7.056669785332053,0.6832331491231612,3.0,88.85211000000001
213,7.19172566639104,1.0653926017998183,7.0904337555968,1.051035325819992,3.0,88.85211000000001
214,7.225489636655786,1.107034161415047,7.1241977258615465,1.1792341400305038,3.0,88.85211000000001
215,7.259253606920534,1.1369720317663288,7.157961696126294,1.0616323107281391,3.0,88.85211000000001
216,7.29301757718528,1.1697558100542123,7.19172566639104,0.7859695331229601,3.0,88.85211000000001
217,7.326781547450026,1.1919657581498517,7.225489636655786,0.48510828869216144,3.0,88.85211000000001
218,7.360545517714773,1.1803640521978787,7.259253606920534,0.2701660109501851,3.0,88.85211000000001
219,7.39430948797952,1.1145661596867287,7.29301757718528,0.18234173625491598,3.0,88.85211000000001
220,7.428073458244267,0.98219162297448,7.326781547450027,0.18627497288827127,3.0,88.85211000000001
221,7.461837428509013,0.7810267383661805,7.360545517714773,0.20297338207304808,3.0,88.85211000000001
222,7.4956013987737595,0.5207984856173453,7.39430948797952,0.1597619822265768,3.0,88.85211000000001
223,7.529365369038507,0.22213724162620996,7.428073458244267,0.028834521521114775,3.0,88.85211000000001
224,7.563129339303253,-0.09088907206829934,7.461837428509013,-0.16417207457988134,3.0,88.85211000000001
225,7.596893309568,-0.40352897646537084,7.49560139877376,-0.3620702117296808,3.0,88.85211000000001
226,7.6306572798327466,-0.7199861271069746,7.529365369038507,-0.5130893092604127,3.0,88.85211000000001
227,7.664421250097493,-1.0589497817129416,7.90076904195072,0.9116648573966705,-7.0,-207.32159000000001
228,7.69818522036224,-1.4317356380910953,7.934533012215467,1.231466283592989,-7.0,-207.32159000000001
229,7.731949190626986,-1.8145936485114453,7.6306572798327466,-0.7166358953193263,3.0,88.85211000000001
230,7.765713160891734,-2.136393254611381,7.664421250097494,-0.8238199194289452,3.0,88.85211000000001
231,7.79947713115648,-2.296309548268109,7.69818522036224,-0.9564957134852787,3.0,88.85211000000001
232,7.833241101421226,-2.2056154659054554,7.731949190626986,-1.040365453537542,3.0,88.85211000000001
233,7.867005071685973,-1.829956277506808,7.765713160891734,-0.9755419141041499,3.0,88.85211000000001
234,7.90076904195072,-1.2092746338749296,7.79947713115648,-0.6926432162524986,3.0,88.85211000000001
235,7.934533012215467,-0.4490736226742622,7.833241101421227,-0.20372486588940475,3.0,88.85211000000001
236,7.968296982480213,0.30911831068818696,7.867005071685973,0.38495427265605725,3.0,88.85211000000001
237,8.00206095274496,0.92824284647984,7.900769041950721,0.9116648573966789,3.0,88.85211000000001
238,8.035824923009706,1.318292954747477,7.934533012215466,1.2314662835929806,3.0,88.85211000000001
239,8.069588893274453,1.4666383945466108,7.968296982480213,1.2821233796570903,3.0,88.85211000000001
240,8.1033528635392,1.4390335490245239,8.00206095274496,1.1071467227863554,3.0,88.85211000000001
241,8.137116833803946,1.346739376844006,8.035824923009706,0.8255275389894343,3.0,88.85211000000001
242,8.170880804068693,1.2952857305206062,8.069588893274453,0.5682724614954976,3.0,88.85211000000001
243,8.20464477433344,1.339464611205371,8.1033528635392,0.41758128420480206,3.0,88.85211000000001
244,8.238408744598187,1.4624086251459103,8.137116833803947,0.37851643092462967,3.0,88.85211000000001
245,8.272172714862933,1.5848728494648934,8.170880804068693,0.3922145065595577,3.0,88.85211000000001
246,8.30593668512768,1.6016093195860095,8.20464477433344,0.3777221847948096,3.0,88.85211000000001
247,8.339700655392427,1.4314178281890366,8.238408744598187,0.2777886565606831,3.0,88.85211000000001
248,8.373464625657173,1.0564027102221847,8.30593668512768,-0.15420182601325091,2.0,59.23474
249,8.40722859592192,0.5275722013770797,8.339700655392427,-0.3772017250879055,2.0,59.23474
250,8.440992566186667,-0.06531686371611546,8.373464625657174,-0.5303186451562815,2.0,59.23474
251,8.474756536451412,-0.6377294333241169,8.40722859592192,-0.602631984650294,2.0,59.23474
252,8.50852050671616,-1.1388813614600353,8.440992566186667,-0.6302980991870265,2.0,59.23474
253,8.542284476980907,-1.5488268515121215,8.474756536451414,-0.6746284298650239,2.0,59.23474
254,8.576048447245654,-1.8522867333557045,8.508520506716161,-0.7813611120828036,2.0,59.23474
255,8.6098124175104,-2.0162537487884906,8.542284476980907,-0.9415211394430039,2.0,59.23474
256,8.643576387775147,-1.9956556248543038,8.576048447245654,-1.0782293566599424,2.0,59.23474
257,8.677340358039894,-1.7661681220666618,8.609812417510401,-1.0744195887978634,2.0,59.23474
258,8.71110432830464,-1.35688727050929,8.643576387775147,-0.8343951037195476,2.0,59.23474
259,8.744868298569386,-0.8527004323970608,8.677340358039894,-0.34818073672483074,2.0,59.23474
260,8.778632268834134,-0.3600023736605854,8.711104328304641,0.28142860577945666,2.0,59.23474
261,8.812396239098879,0.0417449427886728,8.744868298569386,0.8723980499807353,2.0,59.23474
262,8.846160209363626,0.33069302207136186,8.778632268834134,1.2448582710184193,2.0,59.23474
263,8.879924179628373,0.5381011048549668,8.81239623909888,1.3060750333542839,2.0,59.23474
264,8.91368814989312,0.7146950650683113,8.846160209363628,1.0906285142392635,2.0,59.23474
265,8.947452120157866,0.8904717084737338,8.879924179628373,0.7344949453137861,2.0,59.23474
266,8.981216090422613,1.053043589561783,8.91368814989312,0.40085505881420475,2.0,59.23474
267,9.01498006068736,1.1574127309112496,8.947452120157868,0.2010333941216803,2.0,59.23474
268,9.048744030952106,1.159138602344658,8.981216090422613,0.15212587614832743,2.0,59.23474
269,9.082508001216853,1.0468199706002177,9.01498006068736,0.18820459455175276,2.0,59.23474
270,9.1162719714816,0.8505312990624432,9.048744030952108,0.21143428341737563,2.0,59.23474
271,9.150035941746346,0.6198509804720475,9.082508001216853,0.1504523960345428,2.0,59.23474
272,9.183799912011093,0.38657470205581274,9.1162719714816,-0.005748308164450274,2.0,59.23474
273,9.21756388227584,0.13935802345645187,9.150035941746347,-0.21285996860859302,2.0,59.23474
274,9.251327852540587,-0.16751592610023514,9.183799912011095,-0.4068866584834137,2.0,59.23474
275,9.285091822805333,-0.5704430591057504,9.21756388227584,-0.5459193429867015,2.0,59.23474
276,9.31885579307008,-1.0439025296823394,9.251327852540587,-0.6319210200876351,2.0,59.23474
277,9.352619763334827,-1.4788429626572526,9.285091822805335,-0.6994627258559967,2.0,59.23474
278,9.386383733599573,-1.7180171001539146,9.31885579307008,-0.7791048424055129,2.0,59.23474
279,9.42014770386432,-1.6362987358639987,9.352619763334827,-0.8601009218045618,2.0,59.23474
280,9.453911674129067,-1.2179613442943416,9.386383733599574,-0.8799736611106517,2.0,59.23474
281,9.487675644393812,-0.5784990155956418,9.42014770386432,-0.7537157301218292,2.0,59.23474
282,9.52143961465856,0.08747100574003075,9.453911674129067,-0.42966654469387966,2.0,59.23474
283,9.555203584923307,0.6021431308409516,9.487675644393814,0.06197755038889513,2.0,59.23474
284,9.588967555188054,0.8857567437426328,9.521439614658561,0.6026730192491165,2.0,59.23474
285,9.6227315254528,0.9756927743248142,9.555203584923307,1.0319021740348757,2.0,59.23474
286,9.656495495717547,0.9780354898759612,9.588967555188054,1.2231704889429444,2.0,59.23474
287,9.690259465982294,0.9890338000590272,9.622731525452801,1.1457702549196296,2.0,59.23474
288,9.72402343624704,1.038125744927047,9.656495495717547,0.8762620994957178,2.0,59.23474
289,9.757787406511786,1.0833419284003785,9.690259465982294,0.5543142234476925,2.0,59.23474
290,9.791551376776534,1.0531075351420123,9.724023436247041,0.3100983968742073,2.0,59.23474
291,9.825315347041279,0.9018606140824279,9.757787406511786,0.20446188677410365,2.0,59.23474
292,9.859079317306026,0.6436792791337198,9.791551376776534,0.2119814820591439,2.0,59.23474
293,9.892843287570773,0.3446691526714822,9.82531534704128,0.2501661589655433,2.0,59.23474
294,9.92660725783552,0.07958457920143577,9.892843287570773,0.11654982846825948,1.0,29.61737
295,9.960371228100266,-0.12073227659153013,9.926607257835519,-0.0841804727702132,1.0,29.61737
296,9.994135198365013,-0.296702248251819,9.960371228100266,-0.3145093059653506,1.0,29.61737
297,10.02789916862976,-0.5391028028490871,9.994135198365013,-0.5173789734254871,1.0,29.61737
298,10.061663138894506,-0.9246301786659828,10.027899168629759,-0.6672714439412663,1.0,29.61737
299,10.095427109159253,-1.4429353438902446,10.061663138894506,-0.7798446812304419,1.0,29.61737
300,10.129191079424,-1.9636762424117393,10.095427109159253,-0.8911984032826281,1.0,29.61737
301,10.162955049688746,-2.2759806550036714,10.129191079423999,-1.0188915311223914,1.0,29.61737
302,10.196719019953493,-2.19053617516146,10.162955049688746,-1.130116459900883,1.0,29.61737
303,10.23048299021824,-1.6499921874455377,10.196719019953493,-1.141925986361443,1.0,29.61737
304,10.264246960482987,-0.7788775673369553,10.23048299021824,-0.9613351364510954,1.0,29.61737
305,10.298010930747733,0.16401237376045882,10.264246960482986,-0.5468491675968583,1.0,29.61737
306,10.33177490101248,0.9071725141011344,10.298010930747733,0.046258056469950355,1.0,29.61737
307,10.365538871277227,1.2906291738143332,10.33177490101248,0.670826021872628,1.0,29.61737
308,10.399302841541973,1.322180582332311,10.365538871277225,1.1478524337864493,1.0,29.61737
309,10.43306681180672,1.1424103067100866,10.399302841541973,1.3503072926663124,1.0,29.61737
310,10.466830782071467,0.9317928150317512,10.43306681180672,1.2619714416640044,1.0,29.61737
311,10.500594752336212,0.8190035570014782,10.466830782071465,0.9777607487222701,1.0,29.61737
312,10.53435872260096,0.8351446080703964,10.500594752336212,0.6483956994547757,1.0,29.61737
313,10.568122692865707,0.9240442587899111,10.53435872260096,0.40392059003224023,1.0,29.61737
314,10.601886663130452,0.9899343779678045,10.568122692865705,0.29824341581193997,1.0,29.61737
315,10.6356506333952,0.9531114804008941,10.601886663130452,0.2998911529774756,1.0,29.61737
316,10.669414603659947,0.7883220061444562,10.6356506333952,0.32634504009173826,1.0,29.61737
317,10.703178573924694,0.5311695358046556,10.669414603659947,0.29740833279045376,1.0,29.61737
318,10.73694254418944,0.25139041632526726,10.703178573924692,0.17735390260091033,1.0,29.61737
319,10.770706514454186,0.007488609445659026,10.73694254418944,-0.013864214343414644,1.0,29.61737
320,10.804470484718934,-0.191375175741204,10.770706514454186,-0.2214036746040053,1.0,29.61737
321,10.838234454983679,-0.3922701045236897,10.804470484718932,-0.39302605201965646,1.0,29.61737
322,10.871998425248426,-0.666675487949057,10.838234454983679,-0.5109444300583853,1.0,29.61737
323,10.905762395513174,-1.054733922124023,10.871998425248426,-0.5997987211068307,1.0,29.61737
324,10.939526365777919,-1.5169704819074001,10.905762395513172,-0.7053872792722259,1.0,29.61737
325,10.973290336042666,-1.9265333532505675,10.939526365777919,-0.8550828217312301,1.0,29.61737
326,11.007054306307413,-2.116324626450805,10.973290336042666,-1.023251277676162,1.0,29.61737
327,11.04081827657216,-1.961607174390007,11.007054306307413,-1.1260391789854414,1.0,29.61737
328,11.074582246836906,-1.4509404076090666,11.040818276572159,-1.0560953215975937,1.0,29.61737
329,11.108346217101653,-0.7009062822019256,11.074582246836906,-0.7438783742245628,1.0,29.61737
330,11.1421101873664,0.09499073404148543,11.108346217101653,-0.211609527279416,1.0,29.61737
331,11.175874157631146,0.7520349329859012,11.142110187366399,0.41597975555279226,1.0,29.61737
332,11.209638127895893,1.1661695836990782,11.175874157631146,0.9576667362893414,1.0,29.61737
333,11.24340209816064,1.3375759092738526,11.209638127895893,1.2574096467354978,1.0,29.61737
334,11.277166068425386,1.3428509581798291,11.243402098160638,1.2566417875202904,1.0,29.61737
335,11.310930038690133,1.2802516631457213,11.277166068425386,1.016429138610384,1.0,29.61737
336,11.34469400895488,1.220842000022768,11.310930038690133,0.678779729022525,1.0,29.61737
337,11.378457979219627,1.1862970154241537,11.34469400895488,0.3916494496309392,1.0,29.61737
338,11.412221949484373,1.1545172486691504,11.378457979219625,0.24019876898133805,1.0,29.61737
339,11.44598591974912,1.082132499931421,11.412221949484373,0.21889037733588573,1.0,29.61737
340,11.479749890013867,0.93163097338282,11.44598591974912,0.25319960181063195,1.0,29.61737
341,11.513513860278612,0.6926267201750768,11.479749890013865,0.2525665357509006,1.0,29.61737
342,11.54727783054336,0.3875415658212093,11.513513860278612,0.16223440471272182,1.0,29.61737
343,11.581041800808107,0.056974217231863654,11.54727783054336,-0.013547144347689832,1.0,29.61737
344,11.614805771072852,-0.267295933776604,11.581041800808105,-0.22551620089823904,1.0,29.61737
345,11.6485697413376,-0.5817345301086929,11.614805771072852,-0.41756362087322973,1.0,29.61737
346,11.682333711602347,-0.9049961826811314,11.6485697413376,-0.5634361077738751,1.0,29.61737
347,11.716097681867094,-1.2470720093459133,11.682333711602347,-0.6786661932345294,1.0,29.61737
348,11.74986165213184,-1.5759028604933834,11.716097681867092,-0.7998727892028068,1.0,29.61737
349,11.783625622396587,-1.8099664935874222,11.74986165213184,-0.9440837486337332,1.0,29.61737
350,11.817389592661334,-1.8493687053523284,11.783625622396587,-1.0753269217046035,1.0,29.61737
351,11.85115356292608,-1.6303496873577485,11.817389592661332,-1.1050896022592274,1.0,29.61737
352,11.884917533190826,-1.1691803595314167,11.85115356292608,-0.934877668255564,1.0,29.61737
353,11.918681503455574,-0.5658079274650183,11.884917533190826,-0.5211681343637614,1.0,29.61737
354,11.952445473720319,0.037153007376234795,11.918681503455572,0.07717893409804677,1.0,29.61737
355,11.986209443985066,0.516452954939446,11.952445473720319,0.7047663164442076,1.0,29.61737
356,12.019973414249813,0.8161976644949788,11.986209443985066,1.1737041966396875,1.0,29.61737
357,12.05373738451456,0.9574808093823634,12.019973414249813,1.3523942463081682,1.0,29.61737
358,12.087501354779306,1.0086265939947618,12.053737384514559,1.2274919116445404,1.0,29.61737
359,12.121265325044053,1.0366161677706827,12.087501354779306,0.9035263790185027,1.0,29.61737
360,12.1550292953088,1.0692601227846832,12.121265325044053,0.5429824257935829,1.0,29.61737
361,12.188793265573546,1.0888012987932842,12.155029295308799,0.28367717927329295,1.0,29.61737
362,12.222557235838293,1.055731413476333,12.188793265573546,0.1794362856521929,1.0,29.61737
363,12.25632120610304,0.9419840924383548,12.222557235838293,0.1920245245172442,1.0,29.61737
364,12.290085176367786,0.74936675420837,12.256321206103038,0.2308342885830031,1.0,29.61737
365,12.323849146632533,0.5026871525596576,12.290085176367786,0.21138824767527908,1.0,29.61737
366,12.35761311689728,0.22618936427193811,12.323849146632533,0.09779626344438369,1.0,29.61737
367,12.391377087162027,-0.07642399263110398,12.35761311689728,-0.09116050277094027,1.0,29.61737
368,12.425141057426773,-0.4210079075115733,12.391377087162025,-0.3084199599847499,1.0,29.61737
369,12.45890502769152,-0.8188394018137868,12.425141057426773,-0.5147216226461034,1.0,29.61737
370,12.492668997956267,-1.244521833237053,12.425141057426774,-0.5147216226461131,2.0,59.23474
371,12.526432968221012,-1.6195442027645497,12.45890502769152,-0.6984477720332404,2.0,59.23474
372,12.56019693848576,-1.8288512715111322,12.492668997956267,-0.8665546585107444,2.0,59.23474
373,12.593960908750507,-1.7688708446421726,12.526432968221014,-1.0151284429688046,2.0,59.23474
374,12.627724879015252,-1.4037394719873155,12.56019693848576,-1.1041516102707616,2.0,59.23474
375,12.66148884928,-0.7964120387453674,12.593960908750507,-1.060934870215381,2.0,59.23474
376,12.695252819544747,-0.09255100616188801,12.627724879015254,-0.8182742695413089,2.0,59.23474
377,12.729016789809494,0.5375019940991679,12.661488849280001,-0.36706757922721156,2.0,59.23474
378,12.76278076007424,0.968265725912643,12.695252819544747,0.21269416435111813,2.0,59.23474
379,12.796544730338987,1.164208761700786,12.729016789809494,0.7697937262059704,2.0,59.23474
380,12.830308700603734,1.1799224980779028,12.762780760074241,1.145173031085599,2.0,59.23474
381,12.86407267086848,1.1189830193520591,12.796544730338987,1.2461219529243823,2.0,59.23474
382,12.897836641133226,1.074704133053678,12.830308700603734,1.0877783505052698,2.0,59.23474
383,12.931600611397974,1.083730546127649,12.864072670868481,0.7787006920592007,2.0,59.23474
384,12.965364581662719,1.1157903549700896,12.931600611397972,0.2429387045208619,1.0,29.61737
385,12.999128551927466,1.102320646996075,12.931600611397974,0.2429387045208504,2.0,59.23474
386,13.032892522192213,0.9842996516538572,12.96536458166272,0.15345406463661843,2.0,59.23474
387,13.06665649245696,0.7493112468077997,12.999128551927468,0.1485071307002552,2.0,59.23474
388,13.100420462721706,0.4359094753205078,13.032892522192213,0.14866218523659394,2.0,59.23474
389,13.134184432986453,0.10432705244809393,13.06665649245696,0.08908657904410304,2.0,59.23474
390,13.1679484032512,-0.20632400431687584,13.100420462721708,-0.048308330139251614,2.0,59.23474
391,13.201712373515946,-0.5052007679865319,13.134184432986453,-0.2347593329023538,2.0,59.23474
392,13.235476343780693,-0.8405408177384059,13.1679484032512,-0.42156959429323215,2.0,59.23474
393,13.26924031404544,-1.2555136170155388,13.201712373515948,-0.5742438110430081,2.0,59.23474
394,13.303004284310186,-1.7343851909942865,13.235476343780693,-0.6914068636509549,2.0,59.23474
395,13.336768254574933,-2.1756245932381897,13.26924031404544,-0.7963673504226043,2.0,59.23474
396,13.37053222483968,-2.4179583016309705,13.303004284310187,-0.9067431859844747,2.0,59.23474
397,13.404296195104427,-2.3151388187912487,13.336768254574935,-1.00293247386115,2.0,59.23474
398,13.438060165369173,-1.8212813014309845,13.37053222483968,-1.0200060641348165,2.0,59.23474
399,13.47182413563392,-1.0338736213108957,13.404296195104427,-0.8753718460283235,2.0,59.23474
400,13.505588105898667,-0.1612645369575653,13.438060165369174,-0.5211893067214102,2.0,59.23474
401,13.539352076163413,0.5721830443447861,13.47182413563392,0.009799009173311059,2.0,59.23474
402,13.57311604642816,1.0287953596155113,13.505588105898667,0.597947499798019,2.0,59.23474
403,13.606880016692907,1.2089711952476028,13.539352076163414,1.0809720343590947,2.0,59.23474
404,13.640643986957652,1.2261403857693642,13.57311604642816,1.3274461724544269,2.0,59.23474
405,13.6744079572224,1.2259399790024597,13.606880016692907,1.2979001159035681,2.0,59.23474
406,13.708171927487147,1.298803528512567,13.640643986957654,1.0586598876230822,2.0,59.23474
407,13.741935897751894,1.4350068233218713,13.674407957222401,0.7423258904847366,2.0,59.23474
408,13.77569986801664,1.544999418104647,13.708171927487147,0.4794759075292625,2.0,59.23474
409,13.809463838281387,1.527717630623059,13.741935897751894,0.33969713301531473,2.0,59.23474
410,13.843227808546134,1.3390764549410505,13.775699868016641,0.31082240355037527,2.0,59.23474
411,13.87699177881088,1.0159031395619187,13.809463838281387,0.321720513415041,2.0,59.23474
412,13.910755749075626,0.6462581318687655,13.843227808546134,0.29084160354634353,2.0,59.23474
413,13.944519719340374,0.31469331051173427,13.876991778810881,0.17182383355810302,2.0,59.23474
414,13.978283689605119,0.06028766542081932,13.910755749075626,-0.027364576596715377,2.0,59.23474
415,14.012047659869866,-0.13369041992370964,13.944519719340374,-0.2586227632070734,2.0,59.23474
416,14.045811630134613,-0.3229694115664574,13.97828368960512,-0.46941020135245376,2.0,59.23474
417,14.079575600399359,-0.572091141070426,14.012047659869866,-0.6366514399657095,2.0,59.23474
418,14.113339570664106,-0.921723159850131,14.045811630134613,-0.7769454504004488,2.0,59.23474
419,14.147103540928853,-1.3611709651518746,14.07957560039936,-0.9251185307123347,2.0,59.23474
420,14.1808675111936,-1.816300929580292,14.113339570664108,-1.0932651232137296,2.0,59.23474
421,14.214631481458346,-2.164931441911703,14.147103540928853,-1.2378336253376339,2.0,59.23474
422,14.248395451723093,-2.2823570182017225,14.1808675111936,-1.262359759861533,2.0,59.23474
423,14.28215942198784,-2.098583881103694,14.214631481458348,-1.0642642705795116,2.0,59.23474
424,14.315923392252586,-1.6320338952790898,14.248395451723093,-0.6040505954406215,2.0,59.23474
425,14.349687362517333,-0.9734365438911637,14.28215942198784,0.04643879898179373,2.0,59.23474
426,14.38345133278208,-0.23047011910461612,14.315923392252587,0.7144808475365797,2.0,59.23474
427,14.417215303046826,0.5220225160925098,14.349687362517333,1.1989331026560845,2.0,59.23474
428,14.450979273311573,1.2458548740773705,14.38345133278208,1.366347269799038,2.0,59.23474
429,14.48474324357632,1.8999430072866654,14.417215303046827,1.2142465600731427,2.0,59.23474
430,14.518507213841067,2.4020675674748566,14.450979273311575,0.8646664955214564,2.0,59.23474
431,14.552271184105813,2.638055764763965,14.48474324357632,0.4942983170306085,2.0,59.23474
432,14.58603515437056,2.521900530052317,14.518507213841067,0.24437504794605702,2.0,59.23474
433,14.619799124635307,2.0614160132439476,14.518507213841067,0.24437504794605702,3.0,88.85211000000001
434,14.653563094900052,1.3744763326163814,14.552271184105813,0.16094634632373622,3.0,88.85211000000001
435,14.6873270651648,0.6389675446432695,14.58603515437056,0.19311229365912777,3.0,88.85211000000001
436,14.721091035429547,0.008681338724109469,14.619799124635307,0.24078578359246494,3.0,88.85211000000001
437,14.754855005694292,-0.45251498262470125,14.653563094900052,0.21748758298782858,3.0,88.85211000000001
438,14.78861897595904,-0.7821011497365822,14.6873270651648,0.09126631096251385,3.0,88.85211000000001
439,14.822382946223787,-1.0735774979986161,14.721091035429547,-0.1139950004707622,3.0,88.85211000000001
440,14.856146916488534,-1.4023975377283981,14.754855005694294,-0.3481918569245717,3.0,88.85211000000001
441,14.88991088675328,-1.7652635228378908,14.78861897595904,-0.5696866652375459,3.0,88.85211000000001
442,14.923674857018026,-2.067720843460722,14.822382946223787,-0.7604822774181377,3.0,88.85211000000001
443,14.957438827282774,-2.169154882677659,14.856146916488534,-0.914397024697598,3.0,88.85211000000001
444,14.991202797547519,-1.9619255838255822,14.88991088675328,-1.0118705385780458,3.0,88.85211000000001
445,15.024966767812266,-1.4409050387563214,14.923674857018026,-1.0060920555819801,3.0,88.85211000000001
446,15.058730738077013,-0.7237657064382045,14.957438827282774,-0.8381297945269444,3.0,88.85211000000001
447,15.092494708341759,-0.008269897271163052,14.991202797547519,-0.47718601671966643,3.0,88.85211000000001
448,15.126258678606506,0.5143106131935642,15.024966767812266,0.03968691370024135,3.0,88.85211000000001
449,15.160022648871253,0.7470550225981588,15.058730738077013,0.5995072177555332,3.0,88.85211000000001
450,15.193786619136,0.7307267494180536,15.09249470834176,1.0506358781935687,3.0,88.85211000000001
451,15.227550589400746,0.6168540423042028,15.126258678606506,1.269288533085895,3.0,88.85211000000001
452,15.261314559665493,0.5816572742501985,15.160022648871253,1.2178413374071275,3.0,88.85211000000001
453,15.29507852993024,0.727561706889812,15.193786619136,0.9604028080306507,3.0,88.85211000000001
454,15.328842500194986,1.029849275070282,15.227550589400746,0.6266029351547376,3.0,88.85211000000001
455,15.362606470459733,1.3600238404051912,15.261314559665493,0.34512598939277234,3.0,88.85211000000001
456,15.39637044072448,1.5687588269401957,15.29507852993024,0.18458955583692366,3.0,88.85211000000001
457,15.430134410989226,1.5726137565788505,15.328842500194986,0.13245652026920104,3.0,88.85211000000001
458,15.463898381253973,1.3879525010716978,15.362606470459733,0.11894147244139902,3.0,88.85211000000001
459,15.49766235151872,1.09477480483589,15.39637044072448,0.06727590148447271,3.0,88.85211000000001
460,15.531426321783467,0.7641387765508714,15.430134410989227,-0.0612081898272969,3.0,88.85211000000001
461,15.565190292048213,0.4067426106739406,15.463898381253973,-0.25240954008627914,3.0,88.85211000000001
462,15.59895426231296,-0.020033815497374576,15.49766235151872,-0.4596455979483229,3.0,88.85211000000001
463,15.632718232577707,-0.5553626147043796,15.531426321783467,-0.640976946356465,3.0,88.85211000000001
464,15.666482202842452,-1.1727809571612826,15.565190292048213,-0.7860672811298215,3.0,88.85211000000001
465,15.7002461731072,-1.7586427161228388,15.59895426231296,-0.9133296111755579,3.0,88.85211000000001
466,15.734010143371947,-2.1490074102758934,15.632718232577707,-1.039433053061933,3.0,88.85211000000001
467,15.767774113636692,-2.2053490040134065,15.666482202842452,-1.1440795355497002,3.0,88.85211000000001
468,15.80153808390144,-1.885331172287121,15.7002461731072,-1.1592889531320214,3.0,88.85211000000001
469,15.835302054166187,-1.2683403093302157,15.734010143371947,-0.9982677699656559,3.0,88.85211000000001
470,15.869066024430934,-0.5238050753214933,15.767774113636694,-0.6115865726017864,3.0,88.85211000000001
471,15.90282999469568,0.1571873861708033,15.80153808390144,-0.03581957818818834,3.0,88.85211000000001
472,15.936593964960426,0.6317011512610149,15.835302054166187,0.6007028591173899,3.0,88.85211000000001
473,15.970357935225174,0.8476035144138363,15.869066024430934,1.1257072785243927,3.0,88.85211000000001
474,16.00412190548992,0.8466041834337357,15.902829994695681,1.4006089192949978,3.0,88.85211000000001
475,16.037885875754668,0.7309839161278215,15.936593964960428,1.3838564954677384,3.0,88.85211000000001
476,16.07164984601941,0.6110185796069582,15.970357935225172,1.1440182894413982,3.0,88.85211000000001
477,16.10541381628416,0.5579792806637047,16.004121905489917,0.8173507367591264,3.0,88.85211000000001
478,16.139177786548906,0.5827092779298902,16.037885875754665,0.5366844975356146,3.0,88.85211000000001
479,16.172941756813653,0.644201391500129,16.07164984601941,0.3718689074610164,3.0,88.85211000000001
480,16.2067057270784,0.6780582689168521,16.10541381628416,0.3109985047924158,3.0,88.85211000000001
481,16.240469697343148,0.6288069215612089,16.139177786548906,0.28597654757776103,3.0,88.85211000000001
482,16.27423366760789,0.4716641191195548,16.17294175681365,0.22207768102356268,3.0,88.85211000000001
483,16.30799763787264,0.21660383939145103,16.206705727078397,0.08164296393731285,3.0,88.85211000000001
484,16.341761608137386,-0.10124097978359003,16.240469697343144,-0.1203733538455665,3.0,88.85211000000001
485,16.375525578402133,-0.43343207228719793,16.27423366760789,-0.3332479419640248,3.0,88.85211000000001
486,16.40928954866688,-0.7255328458440081,16.30799763787264,-0.5062000942241524,3.0,88.85211000000001
487,16.443053518931627,-0.9243347105313559,16.341761608137386,-0.6205012032254984,3.0,88.85211000000001
488,16.476817489196375,-0.9921502509069404,16.375525578402133,-0.6985629948937125,3.0,88.85211000000001
489,16.510581459461118,-0.9246188398620659,16.409289548666877,-0.7836446482385008,3.0,88.85211000000001
490,16.544345429725865,-0.7574234955535947,16.443053518931624,-0.9010434867763042,3.0,88.85211000000001
491,16.578109399990613,-0.5508959170404374,16.47681748919637,-1.0246942649494988,3.0,88.85211000000001
492,16.61187337025536,-0.3585728603260651,16.510581459461118,-1.073843348843541,3.0,88.85211000000001
493,16.645637340520107,-0.2000485696583414,16.544345429725865,-0.9494669933445045,3.0,88.85211000000001
494,16.679401310784854,-0.056392050775061896,16.578109399990613,-0.5951206981020571,3.0,88.85211000000001
495,16.7131652810496,0.10928156589276054,16.61187337025536,-0.04674600882988417,3.0,88.85211000000001
496,16.746929251314345,0.3197984421671526,16.645637340520103,0.5634846186650844,3.0,88.85211000000001
497,16.780693221579092,0.5611047033015154,16.67940131078485,1.0588820403136843,3.0,88.85211000000001
498,16.81445719184384,0.7833904175199182,16.713165281049598,1.299737524724354,3.0,88.85211000000001
499,16.848221162108587,0.9249913126100923,16.746929251314345,1.2482538899730526,3.0,88.85211000000001
500,16.881985132373334,0.9427229605447581,16.780693221579092,0.9800892054587973,3.0,88.85211000000001
501,16.91574910263808,0.8304193593078357,16.81445719184384,0.6383918546915055,3.0,88.85211000000001
502,16.949513072902825,0.6194075805002712,16.848221162108583,0.35933374084865743,3.0,88.85211000000001
503,16.983277043167572,0.36717229454863737,16.88198513237333,0.21122551266202425,3.0,88.85211000000001
504,17.01704101343232,0.14176689301766096,16.915749102638078,0.17712342546696974,3.0,88.85211000000001
505,17.050804983697066,0.002709356127269684,16.949513072902825,0.183526131765069,3.0,88.85211000000001
506,17.084568953961814,-0.02306821353822506,16.983277043167572,0.1523637353357579,3.0,88.85211000000001
507,17.11833292422656,0.036605498066749925,17.01704101343232,0.04396890131500817,3.0,88.85211000000001
508,17.152096894491308,0.09564848355358745,17.050804983697066,-0.13126112098211595,3.0,88.85211000000001
509,17.18586086475605,0.039867760950087684,17.08456895396181,-0.3330614744340792,3.0,88.85211000000001
510,17.2196248350208,-0.2127383228425735,17.118332924226557,-0.5242635079256831,3.0,88.85211000000001
511,17.253388805285546,-0.6505871095797299,17.152096894491304,-0.691452977925521,3.0,88.85211000000001
512,17.287152775550293,-1.1477367036260728,17.18586086475605,-0.8390115572568932,3.0,88.85211000000001
513,17.32091674581504,-1.508360110644592,17.2196248350208,-0.9627254755471958,3.0,88.85211000000001
514,17.354680716079788,-1.5602489824532233,17.253388805285546,-1.0259496538251685,3.0,88.85211000000001
515,17.38844468634453,-1.245565794276757,17.28715277555029,-0.9623196824960631,3.0,88.85211000000001
516,17.42220865660928,-0.6542413028350871,17.320916745815037,-0.7115207290958412,3.0,88.85211000000001
517,17.455972626874026,0.02114505540678386,17.354680716079784,-0.268955564839219,3.0,88.85211000000001
518,17.489736597138773,0.581909101174401,17.38844468634453,0.2853487903139456,3.0,88.85211000000001
519,17.52350056740352,0.9128513430884563,17.42220865660928,0.8047421893936877,3.0,88.85211000000001
520,17.557264537668267,1.0136428281090055,17.455972626874026,1.1374704394064201,3.0,88.85211000000001
521,17.591028507933014,0.9618166493383103,17.489736597138773,1.198048261452764,3.0,88.85211000000001
522,17.624792478197758,0.8431592965878921,17.523500567403516,1.006465628130898,3.0,88.85211000000001
523,17.658556448462505,0.7026842392494272,17.557264537668264,0.6731023330398529,3.0,88.85211000000001
524,17.692320418727252,0.5457671910752945,17.59102850793301,0.3404506364924885,3.0,88.85211000000001
525,17.726084388992,0.3745778519719892,17.624792478197758,0.11632230415571869,3.0,88.85211000000001
526,17.759848359256747,0.2169058668922975,17.658556448462505,0.03367306099648679,3.0,88.85211000000001
527,17.793612329521494,0.11573806707634407,17.692320418727252,0.05254810006655826,3.0,88.85211000000001
528,17.82737629978624,0.08730816700151099,17.726084388992,0.094458130268012,3.0,88.85211000000001
529,17.861140270050985,0.08734117808326344,17.759848359256743,0.08442141966020383,3.0,88.85211000000001
530,17.894904240315732,0.021811821987335108,17.79361232952149,-0.02153447027230468,3.0,88.85211000000001
531,17.92866821058048,-0.19639595856167022,17.827376299786238,-0.23012340330896305,3.0,88.85211000000001
532,17.962432180845227,-0.5803314190472467,17.861140270050985,-0.5170023630453888,3.0,88.85211000000001
533,17.996196151109974,-1.0375692803084842,17.894904240315732,-0.832575537479093,3.0,88.85211000000001
534,18.02996012137472,-1.3999440051459464,17.92866821058048,-1.1035518733972247,3.0,88.85211000000001
535,18.063724091639465,-1.5023589827482582,17.962432180845223,-1.2390576012196906,3.0,88.85211000000001
536,18.09748806190421,-1.2674626067991082,17.99619615110997,-1.1533703681845728,3.0,88.85211000000001
537,18.13125203216896,-0.7472036074440843,18.029960121374717,-0.8054726579173875,3.0,88.85211000000001
538,18.165016002433706,-0.09753181475430103,18.063724091639465,-0.23651090571819233,3.0,88.85211000000001
539,18.198779972698453,0.4963247321350275,18.09748806190421,0.4231613941463745,3.0,88.85211000000001
540,18.2325439429632,0.8985436843203218,18.13125203216896,0.9933120653267625,3.0,88.85211000000001
541,18.266307913227948,1.064025418925202,18.165016002433706,1.3165045241806508,3.0,88.85211000000001
542,18.30007188349269,1.0301506103767033,18.19877997269845,1.32631291729783,3.0,88.85211000000001
543,18.33383585375744,0.8771503937998184,18.232543942963197,1.0726493501865546,3.0,88.85211000000001
544,18.367599824022186,0.6872354485289515,18.266307913227944,0.6909450390484763,3.0,88.85211000000001
545,18.401363794286933,0.5225668446038029,18.30007188349269,0.3347460054443076,3.0,88.85211000000001
546,18.43512776455168,0.42146967334044566,18.33383585375744,0.1094916664992471,3.0,88.85211000000001
547,18.468891734816427,0.3980673379433634,18.367599824022186,0.039300844082449625,3.0,88.85211000000001
548,18.502655705081175,0.43391780122783663,18.401363794286933,0.07567048999934418,3.0,88.85211000000001
549,18.53641967534592,0.46830961308865415,18.435127764551677,0.13339193639218816,3.0,88.85211000000001
550,18.570183645610665,0.40825878015816347,18.468891734816424,0.12902424235105367,3.0,88.85211000000001
551,18.603947615875413,0.17049619190260684,18.50265570508117,0.004860782526120183,3.0,88.85211000000001
552,18.63771158614016,-0.2611438580531255,18.53641967534592,-0.2619367240848809,3.0,88.85211000000001
553,18.671475556404907,-0.8018267131553911,18.570183645610665,-0.6540947611738798,3.0,88.85211000000001
554,18.705239526669654,-1.2870103092122893,18.603947615875413,-1.1057207521263517,3.0,88.85211000000001
555,18.739003496934398,-1.5462074559607448,18.637711586140156,-1.4983733710928182,3.0,88.85211000000001
556,18.772767467199145,-1.4888766175047548,18.671475556404904,-1.6803222047158954,3.0,88.85211000000001
557,18.806531437463892,-1.149590598066497,18.70523952666965,-1.519547864853162,3.0,88.85211000000001
558,18.84029540772864,-0.6642791767724187,18.739003496934398,-0.9748208602493852,3.0,88.85211000000001
559,18.874059377993387,-0.19483824093111782,18.772767467199145,-0.14426561342517055,3.0,88.85211000000001
560,18.907823348258134,0.14855313420032695,18.806531437463892,0.7486096828956349,3.0,88.85211000000001
561,18.94158731852288,0.3429992501015943,18.84029540772864,1.4384116927318815,3.0,88.85211000000001
562,18.975351288787625,0.436037300557688,18.874059377993383,1.7325870898468625,3.0,88.85211000000001
563,19.009115259052372,0.4994317951397517,18.90782334825813,1.594872651619434,3.0,88.85211000000001
564,19.04287922931712,0.5859941030553244,18.941587318522878,1.151309873512531,3.0,88.85211000000001
565,19.076643199581866,0.7084543060543136,18.975351288787625,0.6185838261521953,3.0,88.85211000000001
566,19.110407169846614,0.8413597888523022,19.009115259052372,0.19797695696529044,3.0,88.85211000000001
567,19.14417114011136,0.9374314308191349,19.04287922931712,-0.007887398295339595,3.0,88.85211000000001
568,19.177935110376108,0.9483851768658761,19.076643199581866,-0.018413156449264587,3.0,88.85211000000001
569,19.21169908064085,0.8422777045833479,19.11040716984661,0.06140118085592475,3.0,88.85211000000001
570,19.2454630509056,0.612899370745046,19.144171140111357,0.10656692831845771,3.0,88.85211000000001
571,19.279227021170346,0.28015287461934235,19.177935110376104,0.0285634450562878,3.0,88.85211000000001
572,19.312990991435093,-0.11648793814626185,19.21169908064085,-0.20003949348195288,3.0,88.85211000000001
573,19.34675496169984,-0.5262234048731798,19.211699080640855,-0.20003949348198977,4.0,118.46948
574,19.380518931964588,-0.8921775989297206,19.245463050905602,-0.5506051564139269,4.0,118.46948
575,19.41428290222933,-1.1550255768463256,19.279227021170346,-0.9551048717812809,4.0,118.46948
576,19.44804687249408,-1.2612788714210883,19.312990991435093,-1.3193167946152218,4.0,118.46948
577,19.481810842758826,-1.178980909665835,19.34675496169984,-1.5332140248865909,4.0,118.46948
578,19.515574813023573,-0.9142228047521711,19.380518931964588,-1.4915183019806268,4.0,118.46948
579,19.54933878328832,-0.5167367813913928,19.414282902229335,-1.1324804761460956,4.0,118.46948
580,19.583102753553067,-0.06849283302778279,20.190854218318506,0.2802114151039692,-18.0,-533.11266
581,19.616866723817814,0.3395872589717658,20.224618188583253,1.0225845147034902,-18.0,-533.11266
582,19.650630694082558,0.6327745140829688,19.549338783288317,1.5659083637097153,3.0,88.85211000000001
583,19.684394664347305,0.7728022160529422,19.583102753553064,1.6751911527468146,3.0,88.85211000000001
584,19.718158634612053,0.7687811597522481,19.583102753553067,1.6751911527468262,4.0,118.46948
585,19.7519226048768,0.6729335910093327,19.616866723817814,1.4293230341237353,4.0,118.46948
586,19.785686575141547,0.5585798417316324,19.65063069408256,0.9760829807347973,4.0,118.46948
587,19.819450545406294,0.4878590295070785,19.68439466434731,0.5103490374071059,4.0,118.46948
588,19.85321451567104,0.48398656427631964,19.718158634612056,0.18443690439458027,4.0,118.46948
589,19.886978485935785,0.5204806365296379,19.7519226048768,0.051411707537228325,4.0,118.46948
590,19.920742456200532,0.5315394972440861,19.785686575141547,0.06422741181545744,4.0,118.46948
591,19.95450642646528,0.4398111445636807,19.819450545406294,0.1199990144302048,4.0,118.46948
592,19.988270396730027,0.19147802227980934,19.85321451567104,0.11696279153518471,4.0,118.46948
593,20.022034366994774,-0.21561732426502594,19.88697848593579,-0.00673663628478333,4.0,118.46948
594,20.05579833725952,-0.7234257400905312,19.920742456200536,-0.2633473873878692,4.0,118.46948
595,20.089562307524265,-1.228214391812981,19.95450642646528,-0.624392079437003,4.0,118.46948
596,20.123326277789012,-1.610979054870852,19.988270396730027,-1.0304685386044372,4.0,118.46948
597,20.15709024805376,-1.7720214499724036,20.022034366994774,-1.39444498963846,4.0,118.46948
598,20.190854218318506,-1.659747250517731,20.05579833725952,-1.6069267504188602,4.0,118.46948
599,20.224618188583253,-1.286625317265341,20.089562307524268,-1.5595097161651175,4.0,118.46948
600,20.258382158848,-0.7270587060501834,20.123326277789015,-1.189763577773202,4.0,118.46948
601,20.292146129112748,-0.09519777635469802,20.157090248053763,-0.5290899573250838,4.0,118.46948
602,20.32591009937749,0.4919331540470351,20.190854218318506,0.2802114151039692,4.0,118.46948
603,20.35967406964224,0.9509807081904043,20.224618188583253,1.0225845147034902,4.0,118.46948
604,20.393438039906986,1.249818708972251,20.258382158848,1.4930435377003612,4.0,118.46948
605,20.427202010171733,1.3977384162382698,20.292146129112748,1.5856357236815493,4.0,118.46948
606,20.46096598043648,1.4190222741163188,20.325910099377495,1.3370217324631044,4.0,118.46948
607,20.494729950701227,1.3320572079302186,20.359674069642242,0.9004870462370721,4.0,118.46948
608,20.528493920965975,1.149314056136834,20.39343803990699,0.46641645805389903,4.0,118.46948
609,20.56225789123072,0.893948568109692,20.427202010171733,0.1743978142525209,4.0,118.46948
610,20.596021861495466,0.6123765332225722,20.46096598043648,0.06251236445791061,4.0,118.46948
611,20.629785831760213,0.3637140582388801,20.494729950701227,0.07394318372105058,4.0,118.46948
612,20.66354980202496,0.1873002828267336,20.528493920965975,0.10742551611239358,4.0,118.46948
613,20.697313772289707,0.07126591844637514,20.562257891230722,0.07646100583616128,4.0,118.46948
614,20.731077742554454,-0.051077892884063766,20.59602186149547,-0.05605136212105604,4.0,118.46948
615,20.764841712819198,-0.2669881050272419,20.629785831760213,-0.2796143076927161,4.0,118.46948
616,20.798605683083945,-0.6270321288310794,20.66354980202496,-0.560709648408603,4.0,118.46948
617,20.832369653348692,-1.0978512402537008,20.697313772289707,-0.8642792897333621,4.0,118.46948
618,20.86613362361344,-1.5579656637760833,20.731077742554454,-1.1544896759720071,4.0,118.46948
619,20.899897593878187,-1.8472704992414608,20.7648417128192,-1.3786960224783202,4.0,118.46948
620,20.933661564142934,-1.845917621718298,20.79860568308395,-1.4569097273834895,4.0,118.46948
621,20.96742553440768,-1.5350653671070806,20.832369653348696,-1.2994326209794131,4.0,118.46948
622,21.001189504672425,-1.0022196361714366,20.86613362361344,-0.8547858432898714,4.0,118.46948
623,21.034953474937172,-0.3918934518714827,20.899897593878187,-0.16187721403997915,4.0,118.46948
624,21.06871744520192,0.16358911335029083,20.933661564142934,0.6331741564569305,4.0,118.46948
625,21.102481415466666,0.59287227424998,20.96742553440768,1.3193672531120975,4.0,118.46948
626,21.136245385731414,0.8930499678992723,21.00118950467243,1.708447335144099,4.0,118.46948
627,21.17000935599616,1.100430494752428,21.034953474937176,1.721017181701373,4.0,118.46948
628,21.203773326260904,1.247420288250698,21.06871744520192,1.421143593201932,4.0,118.46948
629,21.23753729652565,1.3335599949888886,21.102481415466666,0.9791887205846713,4.0,118.46948
630,21.2713012667904,1.3282547532213191,21.136245385731414,0.5846579187316778,4.0,118.46948
631,21.305065237055146,1.20108980359941,21.17000935599616,0.3579327527477021,4.0,118.46948
632,21.338829207319893,0.9565145059648348,21.203773326260908,0.306739656774053,4.0,118.46948
633,21.37259317758464,0.6466287525409817,21.237537296525655,0.34467709771443444,4.0,118.46948
634,21.406357147849388,0.35065834845439176,21.271301266790402,0.35368954840013006,4.0,118.46948
635,21.44012111811413,0.13165914040502713,21.305065237055146,0.25052725132681114,4.0,118.46948
636,21.47388508837888,-0.0037902053178459024,21.338829207319893,0.020069919354798037,4.0,118.46948
637,21.507649058643626,-0.11605681638512237,21.37259317758464,-0.2975437135636307,4.0,118.46948
638,21.541413028908373,-0.2999504200343588,21.406357147849388,-0.649022002491709,4.0,118.46948
639,21.57517699917312,-0.6209427955879961,21.440121118114135,-1.0046434139698222,4.0,118.46948
640,21.608940969437867,-1.05632128874912,21.473885088378882,-1.3607752865936633,4.0,118.46948
641,21.642704939702615,-1.4830049629275657,21.50764905864363,-1.7056855583448867,4.0,118.46948
642,21.676468909967358,-1.7292702038087193,21.541413028908373,-1.9765777702661675,4.0,118.46948
643,21.710232880232105,-1.6653934474821523,21.57517699917312,-2.0491267072120762,4.0,118.46948
644,21.743996850496853,-1.2784684981592116,21.608940969437867,-1.7842053514595508,4.0,118.46948
645,21.7777608207616,-0.6837363665240999,21.642704939702615,-1.1161802737745752,4.0,118.46948
646,21.811524791026347,-0.06589285600215483,21.67646890996736,-0.12896652745254686,4.0,118.46948
647,21.845288761291094,0.4112932286715241,21.71023288023211,0.9392059482190209,4.0,118.46948
648,21.879052731555838,0.6734408047147812,21.743996850496853,1.7823893755295421,4.0,118.46948
649,21.912816701820585,0.7492310181777593,21.7777608207616,2.164662513155483,4.0,118.46948
650,21.946580672085332,0.7313591514295389,21.811524791026347,2.0307009224456984,4.0,118.46948
651,21.98034464235008,0.7129834330630779,21.845288761291094,1.5244106683153666,4.0,118.46948
652,22.014108612614827,0.7366798851675761,21.87905273155584,0.9069651594262721,4.0,118.46948
653,22.047872582879574,0.7828826105049624,21.91281670182059,0.42473154121773565,4.0,118.46948
654,22.08163655314432,0.7992232113381634,21.946580672085336,0.20158079694790693,4.0,118.46948
655,22.115400523409065,0.7451690235210627,22.723151988174504,0.1281686623512546,-18.0,-533.11266
656,22.149164493673812,0.6174180818757934,22.014108612614827,0.30980792092252646,4.0,118.46948
657,22.18292846393856,0.43930841364117607,22.047872582879574,0.3563124391255612,4.0,118.46948
658,22.216692434203306,0.22894096895852115,22.08163655314432,0.2524183449536603,4.0,118.46948
659,22.250456404468054,-0.02142652201136752,22.11540052340907,-0.017311517489098194,4.0,118.46948
660,22.2842203747328,-0.33409165751326697,22.149164493673815,-0.40957086737235293,4.0,118.46948
661,22.317984344997548,-0.7114200562873769,22.182928463938563,-0.8574963448544475,4.0,118.46948
662,22.35174831526229,-1.1061702965484332,22.216692434203306,-1.289907196108499,4.0,118.46948
663,22.38551228552704,-1.4204482543314252,22.250456404468054,-1.6274759999548172,4.0,118.46948
664,22.419276255791786,-1.5381863069619475,22.2842203747328,-1.7748503106657985,4.0,118.46948
665,22.453040226056533,-1.3774384570691227,22.317984344997548,-1.6354723659500034,4.0,118.46948
666,22.48680419632128,-0.9378152958463375,22.351748315262295,-1.1574536803946929,4.0,118.46948
667,22.520568166586028,-0.3169703272917598,22.385512285527042,-0.3872625844344392,4.0,118.46948
668,22.55433213685077,0.31910621478034956,22.419276255791786,0.5108947125187163,4.0,118.46948
669,22.58809610711552,0.8040224919425772,22.453040226056533,1.2988128518451925,4.0,118.46948
670,22.621860077380266,1.0442882530093618,22.48680419632128,1.7595943482561607,4.0,118.46948
671,22.655624047645013,1.0573862196154244,22.520568166586028,1.794531125810264,4.0,118.46948
672,22.68938801790976,0.9529353993237881,22.554332136850775,1.465281990489062,4.0,118.46948
673,22.723151988174507,0.8683936069352685,22.588096107115522,0.9567249119156069,4.0,118.46948
674,22.756915958439254,0.8946939626206755,22.62186007738027,0.4827397803887667,4.0,118.46948
675,22.790679928703998,1.0291541800208603,22.655624047645013,0.18803614237364977,4.0,118.46948
676,22.824443898968745,1.176868931813752,23.432195363734184,0.30563640102633693,-18.0,-533.11266
677,22.858207869233492,1.198574830521315,22.723151988174507,0.1281686623512579,4.0,118.46948
678,22.89197183949824,0.9819791522475941,22.756915958439254,0.1597372602006249,4.0,118.46948
679,22.925735809762987,0.5019718190637097,22.790679928704,0.09653352392820817,4.0,118.46948
680,22.959499780027734,-0.16113104231842656,22.82444389896875,-0.09280470597473373,4.0,118.46948
681,22.99326375029248,-0.8559111597573632,22.858207869233496,-0.3840712127642307,4.0,118.46948
682,23.027027720557225,-1.4282663596321745,22.89197183949824,-0.7310326587575868,4.0,118.46948
683,23.060791690821972,-1.7842581289437267,22.925735809762987,-1.0925386034980733,4.0,118.46948
684,23.09455566108672,-1.9114221556397357,22.959499780027734,-1.4323428816199202,4.0,118.46948
685,23.128319631351467,-1.8522872607419332,22.99326375029248,-1.6969977295348648,4.0,118.46948
686,23.162083601616214,-1.6579595430490082,23.02702772055723,-1.7993127396386885,4.0,118.46948
687,23.19584757188096,-1.3600662228493134,23.060791690821976,-1.6356098292098824,4.0,118.46948
688,23.229611542145705,-0.977397214468672,23.09455566108672,-1.1407775273159522,4.0,118.46948
689,23.26337551241045,-0.539356376740172,23.128319631351467,-0.35119418519950124,4.0,118.46948
690,23.2971394826752,-0.09446964550229453,23.162083601616214,0.5716511802595818,4.0,118.46948
691,23.330903452939946,0.30777542054173,23.19584757188096,1.3865340133890167,4.0,118.46948
692,23.364667423204693,0.6417978946861247,23.229611542145708,1.8723961464866636,4.0,118.46948
693,23.39843139346944,0.9096726544415472,23.263375512410455,1.928870928962787,4.0,118.46948
694,23.432195363734188,1.1197999406203096,23.297139482675203,1.6189553603258122,4.0,118.46948
695,23.46595933399893,1.2641152267063043,23.330903452939946,1.1295147846509208,4.0,118.46948
696,23.49972330426368,1.3184563126318156,23.364667423204693,0.6740250583134024,4.0,118.46948
697,23.533487274528426,1.2657994346276455,23.39843139346944,0.3932209160480544,4.0,118.46948
698,23.567251244793173,1.118848667710299,23.432195363734188,0.3056364010263277,4.0,118.46948
699,23.60101521505792,0.9194230369609608,23.465959333998935,0.3270071631705374,4.0,118.46948
700,23.634779185322667,0.7132643980764157,23.499723304263682,0.33725907634414326,4.0,118.46948
701,23.668543155587415,0.5194037468122796,23.53348727452843,0.2504033427735913,4.0,118.46948
702,23.70230712585216,0.3174195347360613,23.567251244793173,0.048047163886499517,4.0,118.46948
703,23.736071096116905,0.06335309787511587,23.60101521505792,-0.23480450478712994,4.0,118.46948
704,23.769835066381653,-0.2741005840348154,23.634779185322667,-0.5515520696925299,4.0,118.46948
705,23.8035990366464,-0.6791780355029216,23.668543155587415,-0.8778645298953313,4.0,118.46948
706,23.837363006911147,-1.0786980227395846,23.702307125852162,-1.2111078273509281,4.0,118.46948
707,23.871126977175894,-1.364662789372072,23.73607109611691,-1.5361542810862332,4.0,118.46948
708,23.904890947440638,-1.4402179863468874,23.769835066381653,-1.7866964018508922,4.0,118.46948
709,23.938654917705385,-1.2666699452973778,23.8035990366464,-1.8409301813646546,4.0,118.46948
710,23.972418887970132,-0.8872098184252383,23.837363006911147,-1.5713584460417112,4.0,118.46948
711,24.00618285823488,-0.41234038076623014,23.871126977175894,-0.9289438794192107,4.0,118.46948
712,24.039946828499627,0.02806714386559314,23.90489094744064,-0.008326433901425154,4.0,118.46948
713,24.073710798764374,0.3403442889414198,23.93865491770539,0.9585403316410352,4.0,118.46948
714,24.10747476902912,0.49950490405570475,23.972418887970136,1.6917929198568686,4.0,118.46948
715,24.141238739293865,0.5439090445834014,24.00618285823488,1.9917119943710218,4.0,118.46948
716,24.175002709558612,0.5406783424696872,24.039946828499627,1.8315720713267079,4.0,118.46948
717,24.20876667982336,0.5443652995945021,24.073710798764374,1.3611454037132302,4.0,118.46948
718,24.242530650088106,0.5709584535217535,24.10747476902912,0.8214080390106134,4.0,118.46948
719,24.276294620352854,0.5986460327584672,24.14123873929387,0.4224632403639158,4.0,118.46948
720,24.3100585906176,0.5912400138721653,24.175002709558616,0.2528553782269216,4.0,118.46948
721,24.343822560882344,0.5265568180786432,24.20876667982336,0.2635033464236643,4.0,118.46948
722,24.37758653114709,0.40949744560117435,24.242530650088106,0.32294420658016965,4.0,118.46948
723,24.41135050141184,0.2615201049088509,24.276294620352854,0.30193500799213174,4.0,118.46948
724,24.445114471676586,0.0963592271412636,24.3100585906176,0.1361407303959057,4.0,118.46948
725,24.478878441941333,-0.09681961261408613,24.343822560882348,-0.16239596821609195,4.0,118.46948
726,24.51264241220608,-0.34535171607396264,24.377586531147095,-0.5379048831072516,4.0,118.46948
727,24.546406382470828,-0.6607721242748676,24.411350501411842,-0.9337887054199638,4.0,118.46948
728,24.58017035273557,-1.004276706156466,24.445114471676586,-1.3111014172287563,4.0,118.46948
729,24.61393432300032,-1.2792478431586674,24.478878441941333,-1.6321815407419717,4.0,118.46948
730,24.647698293265066,-1.3648858737468106,24.51264241220608,-1.8307808944410828,4.0,118.46948
731,24.681462263529813,-1.1766978546818092,24.546406382470828,-1.8057179746827923,4.0,118.46948
732,24.71522623379456,-0.7190097374278223,24.580170352735575,-1.4606157067146937,4.0,118.46948
733,24.748990204059307,-0.09720175337923545,24.613934323000322,-0.7749193751400657,4.0,118.46948
734,24.782754174324054,0.5191682029378882,24.64769829326507,0.1418812036698296,4.0,118.46948
735,24.816518144588798,0.9639515087920726,24.681462263529813,1.0613151651449058,4.0,118.46948
736,24.850282114853545,1.1399624435295932,24.71522623379456,1.7221013069360323,4.0,118.46948
737,24.884046085118293,1.0525117864734213,24.748990204059307,1.9490162074012651,4.0,118.46948
738,24.91781005538304,0.7959739188598877,24.782754174324054,1.7353660089114535,4.0,118.46948
739,24.951574025647787,0.5006843044712659,24.8165181445888,1.239690330965627,4.0,118.46948
740,24.985337995912534,0.26948296124855775,24.85028211485355,0.6995692251333845,4.0,118.46948
741,25.019101966177278,0.14024424657131687,24.884046085118293,0.31399527296749236,4.0,118.46948
742,25.052865936442025,0.09239287892138698,24.91781005538304,0.1599420257993129,4.0,118.46948
743,25.086629906706772,0.0831838830869595,24.951574025647787,0.1826727349683279,4.0,118.46948
744,25.12039387697152,0.08046066661221801,24.985337995912534,0.2528006882050879,4.0,118.46948
745,25.154157847236267,0.06821649710836541,25.01910196617728,0.24672152003440517,4.0,118.46948
746,25.187921817501014,0.028988697737575866,25.05286593644203,0.10211035121194174,4.0,118.46948
747,25.22168578776576,-0.07157982651438222,25.086629906706776,-0.17434848662345226,4.0,118.46948
748,25.255449758030505,-0.27439119032764664,25.12039387697152,-0.5348384094993669,4.0,118.46948
749,25.289213728295252,-0.5898375558194954,25.154157847236267,-0.9219334416407033,4.0,118.46948
750,25.32297769856,-0.9601579475017726,25.187921817501014,-1.2786891134911693,4.0,118.46948
751,25.356741668824746,-1.2576557280299454,25.22168578776576,-1.5377234229417969,4.0,118.46948
752,25.390505639089493,-1.3358823999462213,25.255449758030508,-1.6129157004719294,4.0,118.46948
753,25.42426960935424,-1.1108347640481366,25.289213728295255,-1.4189796684965619,4.0,118.46948
754,25.458033579618988,-0.6195446946957225,25.322977698560003,-0.9207565852489332,4.0,118.46948
755,25.49179754988373,-0.01200130194337952,25.356741668824746,-0.18264864767956734,4.0,118.46948
756,25.52556152014848,0.5242016430278431,25.390505639089493,0.6240266298988049,4.0,118.46948
757,25.559325490413226,0.8610388763597073,25.42426960935424,1.2767124286859766,4.0,118.46948
758,25.593089460677973,0.9882766712044552,25.458033579618988,1.5980278983471357,4.0,118.46948
759,25.62685343094272,0.9973489009570441,25.491797549883735,1.5380241801715264,4.0,118.46948
760,25.660617401207467,1.0043193647417215,25.525561520148482,1.1922949088515198,4.0,118.46948
761,25.69438137147221,1.0656810820669151,25.559325490413226,0.7458013612690786,4.0,118.46948
762,25.72814534173696,1.144395388474899,25.593089460677973,0.377460608797222,4.0,118.46948
763,25.761909312001706,1.1459841394888461,25.62685343094272,0.18022307119603567,4.0,118.46948
764,25.795673282266453,0.993083928525578,25.660617401207467,0.13642660434403184,4.0,118.46948
765,25.8294372525312,0.6817301955341493,25.694381371472215,0.15274332995024395,4.0,118.46948
766,25.863201222795947,0.2814408836363756,25.728145341736962,0.12615879619564815,4.0,118.46948
767,25.896965193060694,-0.11463731514853749,25.76190931200171,-0.00015747706635579848,4.0,118.46948
768,25.930729163325438,-0.44903116808285215,25.795673282266453,-0.21994645724456105,4.0,118.46948
769,25.964493133590185,-0.7265307924352585,25.8294372525312,-0.4870618535340752,4.0,118.46948
770,25.998257103854932,-0.9927268159014625,25.863201222795947,-0.7545996289353419,4.0,118.46948
771,26.03202107411968,-1.282470964095344,25.896965193060694,-0.9985704655718471,4.0,118.46948
772,26.065785044384427,-1.5749485551125577,25.93072916332544,-1.2096383275109739,4.0,118.46948
773,26.099549014649174,-1.7870159633801361,25.96449313359019,-1.363067932517485,4.0,118.46948
774,26.13331298491392,-1.8116940790260738,25.998257103854936,-1.3967289655760666,4.0,118.46948
775,26.167076955178665,-1.579153141820838,26.03202107411968,-1.2246487123659202,4.0,118.46948
776,26.200840925443412,-1.1023700832310055,26.065785044384427,-0.7882672587225983,4.0,118.46948
777,26.23460489570816,-0.47953825298309355,26.099549014649174,-0.1155000990856794,4.0,118.46948
778,26.268368865972906,0.14702504908349942,26.13331298491392,0.6566260294261879,4.0,118.46948
779,26.302132836237654,0.6503077988723663,26.16707695517867,1.3220892518323195,4.0,118.46948
780,26.3358968065024,0.9641106475865816,26.200840925443416,1.6943348592977872,4.0,118.46948
781,26.369660776767144,1.0947225276759704,26.23460489570816,1.6940422158495434,4.0,118.46948
782,26.40342474703189,1.1001082617666944,26.268368865972906,1.3845176761567415,4.0,118.46948
783,26.43718871729664,1.0544296924173535,26.302132836237654,0.9344776015984344,4.0,118.46948
784,26.470952687561386,1.0174084976284534,26.3358968065024,0.5311876006140209,4.0,118.46948
785,26.504716657826133,1.0167898735821927,26.369660776767148,0.293611884037661,4.0,118.46948
786,26.53848062809088,1.0422016493955253,26.403424747031895,0.23080491743400577,4.0,118.46948
787,26.572244598355628,1.0493120023773643,26.437188717296642,0.26118918259920504,4.0,118.46948
788,26.60600856862037,0.9765327028172914,26.470952687561386,0.273324304738279,4.0,118.46948
789,26.63977253888512,0.7719925463453363,26.504716657826133,0.18876646306152234,4.0,118.46948
790,26.673536509149866,0.41943910451340816,26.53848062809088,-0.007632509338761508,4.0,118.46948
791,26.707300479414613,-0.050573427355291314,26.572244598355628,-0.2804170981567908,4.0,118.46948
792,26.74106444967936,-0.5691857703365388,26.606008568620375,-0.5818930634590987,4.0,118.46948
793,26.774828419944107,-1.05030038386921,26.639772538885122,-0.8843986838651245,4.0,118.46948
794,26.808592390208855,-1.4124571663476635,26.67353650914987,-1.1819002772189435,4.0,118.46948
795,26.842356360473598,-1.5944373221146821,26.707300479414613,-1.4605438337854417,4.0,118.46948
796,26.876120330738345,-1.5640601390348963,26.74106444967936,-1.6636888989603436,4.0,118.46948
797,26.909884301003093,-1.3227436268307133,26.774828419944107,-1.6864942296956213,4.0,118.46948
798,26.94364827126784,-0.9081142219117404,26.808592390208855,-1.418653475971221,4.0,118.46948
799,26.977412241532587,-0.3932835101237687,26.8423563604736,-0.8187149938412502,4.0,118.46948
800,27.011176211797334,0.12338669186825602,26.87612033073835,0.026993741693522064,4.0,118.46948
801,27.044940182062078,0.5427011323498513,26.909884301003093,0.9083125883731853,4.0,118.46948
802,27.078704152326825,0.7971757661518077,26.94364827126784,1.56990321693004,4.0,118.46948
803,27.112468122591572,0.8750606258686098,26.977412241532587,1.8268043328122536,4.0,118.46948
804,27.14623209285632,0.8207321312893084,27.011176211797334,1.6512934037466143,4.0,118.46948
805,27.179996063121067,0.7104362235017538,27.04494018206208,1.1805650457426835,4.0,118.46948
806,27.213760033385814,0.617107187693977,27.07870415232683,0.6422174547022971,4.0,118.46948
807,27.24752400365056,0.5816338714863002,27.112468122591576,0.24189035868589925,4.0,118.46948
808,27.281287973915305,0.6001966801173911,27.14623209285632,0.07508141783712946,4.0,118.46948
809,27.315051944180052,0.6275231316340052,27.179996063121067,0.10544340333663003,4.0,118.46948
810,27.3488159144448,0.5923842442186003,27.213760033385814,0.21035320524312903,4.0,118.46948
811,27.382579884709546,0.42340462045189264,27.24752400365056,0.25789325277971437,4.0,118.46948
812,27.416343854974293,0.08177151804528165,27.28128797391531,0.16867563904743277,4.0,118.46948
813,27.45010782523904,-0.41101255408893034,27.315051944180055,-0.06551248459415906,4.0,118.46948
814,27.483871795503788,-0.9673155674743587,27.348815914444803,-0.40196829466474876,4.0,118.46948
815,27.51763576576853,-1.4568353990268754,27.382579884709546,-0.7789583322034296,4.0,118.46948
816,27.55139973603328,-1.7489779679423099,27.416343854974293,-1.132693204938726,4.0,118.46948
817,27.585163706298026,-1.755339828019072,27.45010782523904,-1.3938334414793347,4.0,118.46948
818,27.618927676562773,-1.4584673957115757,27.787747527886506,0.7497775551711618,-5.0,-148.08685
819,27.65269164682752,-0.921003541341075,27.821511498151253,0.3480389162879688,-5.0,-148.08685
820,27.686455617092268,-0.272596148894181,27.855275468416,0.11344999426122848,-5.0,-148.08685
821,27.72021958735701,0.3261803758822444,27.889039438680744,0.050083291304740235,-5.0,-148.08685
822,27.75398355762176,0.7367711229851405,27.92280340894549,0.07777172870002996,-5.0,-148.08685
823,27.787747527886506,0.8949488879389715,27.956567379210238,0.09112221956093651,-5.0,-148.08685
824,27.821511498151253,0.837896509411733,27.686455617092268,1.574579606459147,4.0,118.46948
825,27.855275468416,0.6876891325321873,27.720219587357015,1.5398527933541353,4.0,118.46948
826,27.889039438680747,0.592743789780014,27.753983557621762,1.207774729482625,4.0,118.46948
827,27.922803408945494,0.6530459222484782,27.78774752788651,0.7497775551711195,4.0,118.46948
828,27.956567379210238,0.8689014798735029,27.821511498151253,0.3480389162879688,4.0,118.46948
829,27.990331349474985,1.143767271476522,28.12538723053397,-1.028599716790008,-4.0,-118.46948
830,28.024095319739732,1.339301121474475,28.159151200798718,-1.3065641244352464,-4.0,-118.46948
831,28.05785929000448,1.3465504407275757,28.192915171063465,-1.5027773471415922,-4.0,-118.46948
832,28.091623260269227,1.130145148882414,28.226679141328212,-1.534702875130576,-4.0,-118.46948
833,28.125387230533974,0.7270868615141497,28.26044311159296,-1.315878830945235,-4.0,-118.46948
834,28.159151200798718,0.21277582293127945,27.990331349474985,0.016469104836126933,5.0,148.08685
835,28.192915171063465,-0.33893642517990585,28.024095319739732,-0.1636478074234338,5.0,148.08685
836,28.226679141328212,-0.8781267772549611,28.05785929000448,-0.4232690372462153,5.0,148.08685
837,28.26044311159296,-1.3731732209445424,28.091623260269227,-0.7228841910474588,5.0,148.08685
838,28.294207081857706,-1.7858090399957651,28.125387230533974,-1.0285997167900403,5.0,148.08685
839,28.327971052122454,-2.0517262739168243,28.46302693318144,1.6688660836623703,-4.0,-118.46948
840,28.3617350223872,-2.0903511183806325,28.496790903446186,1.3570821958189148,-4.0,-118.46948
841,28.395498992651945,-1.8455491105909965,28.53055487371093,0.9375451432481036,-4.0,-118.46948
842,28.42926296291669,-1.3322670355019517,28.564318843975677,0.5780809174387029,-4.0,-118.46948
843,28.46302693318144,-0.6541302880339466,28.598082814240424,0.36923898022505497,-4.0,-118.46948
844,28.496790903446186,0.026821725406732024,28.63184678450517,0.29989281786613564,-4.0,-118.46948
845,28.530554873710933,0.5556651098921859,28.66561075476992,0.28796335659606564,-4.0,-118.46948
846,28.56431884397568,0.8490387301119544,28.699374725034666,0.24069151319871443,-4.0,-118.46948
847,28.598082814240428,0.9226874917933116,28.733138695299413,0.10622595597958712,-4.0,-118.46948
848,28.63184678450517,0.8692445446152698,28.46302693318144,1.6688660836623703,5.0,148.08685
849,28.66561075476992,0.8022032072234112,28.496790903446186,1.3570821958189148,5.0,148.08685
850,28.699374725034666,0.798480058218652,28.83443060609365,-0.6396885110115563,-4.0,-118.46948
851,28.733138695299413,0.8681417140877874,28.8681945763584,-0.904355861297948,-4.0,-118.46948
852,28.76690266556416,0.9616803199981925,28.901958546623145,-1.1695806037425234,-4.0,-118.46948
853,28.800666635828907,1.00544289517868,28.935722516887893,-1.4199561099892304,-4.0,-118.46948
854,28.83443060609365,0.9437265106146884,28.969486487152636,-1.5906357206413804,-4.0,-118.46948
855,28.8681945763584,0.7646629984621954,29.003250457417384,-1.5732032683290105,-4.0,-118.46948
856,28.901958546623145,0.49679219410348807,29.03701442768213,-1.2669803599140643,-4.0,-118.46948
857,28.935722516887893,0.1817761098509769,28.76690266556416,-0.11083424076267186,5.0,148.08685
858,28.96948648715264,-0.154112157885627,28.800666635828907,-0.3715123921676358,5.0,148.08685
859,29.003250457417387,-0.5058289509081876,28.834430606093655,-0.6396885110115842,5.0,148.08685
860,29.037014427682134,-0.8675999503603496,29.17207030874112,1.5562969928883557,-4.0,-118.46948
861,29.070778397946878,-1.2026207336740269,29.205834279005863,1.7461254618224127,-4.0,-118.46948
862,29.104542368211625,-1.4338053653456133,29.23959824927061,1.5573995889632317,-4.0,-118.46948
863,29.138306338476372,-1.4715675377858317,29.273362219535358,1.1363031325648223,-4.0,-118.46948
864,29.17207030874112,-1.26677621362246,29.307126189800105,0.6882117316505623,-4.0,-118.46948
865,29.205834279005867,-0.8541684119646367,29.340890160064852,0.376034678779389,-4.0,-118.46948
866,29.239598249270614,-0.35136569900962095,29.3746541303296,0.25313679152995744,-4.0,-118.46948
867,29.27336221953536,0.09458378964276774,29.408418100594346,0.2610874044999863,-4.0,-118.46948
868,29.307126189800105,0.3833880037305553,29.44218207085909,0.2835558308790556,-4.0,-118.46948
869,29.340890160064852,0.5105340004098708,29.475946041123837,0.2186844337499451,-4.0,-118.46948
870,29.3746541303296,0.5556064381742434,29.509710011388584,0.02827012033873737,-4.0,-118.46948
871,29.408418100594346,0.6183955922506819,29.54347398165333,-0.257996136811027,-4.0,-118.46948
872,29.442182070859094,0.7470086126100336,29.57723795191808,-0.5757113004513487,-4.0,-118.46948
873,29.47594604112384,0.90583743586319,29.611001922182826,-0.868166961819521,-4.0,-118.46948
874,29.509710011388584,1.0020235865649285,29.64476589244757,-1.1086093653644875,-4.0,-118.46948
875,29.54347398165333,0.9497573039863864,29.678529862712317,-1.2902644246715358,-4.0,-118.46948
876,29.57723795191808,0.7298385650856506,29.712293832977064,-1.3963963647999889,-4.0,-118.46948
877,29.611001922182826,0.4080564616161799,29.408418100594346,0.2610874044999863,6.0,177.70422000000002
878,29.644765892447573,0.10131430093379823,29.47594604112384,0.21868443374993826,5.0,148.08685
879,29.67852986271232,-0.08992171387831337,29.509710011388588,0.02827012033870725,5.0,148.08685
880,29.712293832977068,-0.14387656355499326,29.509710011388588,0.02827012033870725,6.0,177.70422000000002
881,29.74605780324181,-0.13546837898761147,29.54347398165333,-0.257996136811027,6.0,177.70422000000002
882,29.77982177350656,-0.19436365924856985,29.57723795191808,-0.5757113004513487,6.0,177.70422000000002
883,29.813585743771306,-0.42279581275013195,29.611001922182826,-0.868166961819521,6.0,177.70422000000002
884,29.847349714036053,-0.8201905653317064,29.644765892447573,-1.1086093653645128,6.0,177.70422000000002
885,29.8811136843008,-1.2632834664763624,29.67852986271232,-1.2902644246715549,6.0,177.70422000000002
886,29.914877654565547,-1.561310742778146,29.712293832977068,-1.3963963648,6.0,177.70422000000002
887,29.948641624830294,-1.5589621600552048,29.746057803241815,-1.378597762634354,6.0,177.70422000000002
888,29.982405595095038,-1.224728764380971,29.77982177350656,-1.1677896861522188,6.0,177.70422000000002
889,30.016169565359785,-0.6681213832183062,29.813585743771306,-0.7193564490418043,6.0,177.70422000000002
890,30.049933535624533,-0.07628112040558625,29.847349714036053,-0.06547065819316439,6.0,177.70422000000002
891,30.08369750588928,0.3865651431804176,29.8811136843008,0.6651447306787163,6.0,177.70422000000002
892,30.117461476154027,0.6544360464240428,29.948641624830294,1.6229539831053672,5.0,148.08685
893,30.151225446418774,0.7710025105475165,29.98240559509504,1.6138491153924996,5.0,148.08685
894,30.184989416683518,0.8402742961470883,30.016169565359785,1.3184246120005796,5.0,148.08685
895,30.218753386948265,0.9507341551284888,30.049933535624533,0.8921051799846484,5.0,148.08685
896,30.252517357213012,1.1157566022514531,30.387573238271997,-0.9958241531946024,-4.0,-118.46948
897,30.28628132747776,1.2627516696120102,30.421337208536745,-1.218106391017826,-4.0,-118.46948
898,30.320045297742507,1.2781550391935397,30.117461476154027,0.2554494789437195,6.0,177.70422000000002
899,30.353809268007254,1.0820947258927907,30.151225446418774,0.15388899323930866,6.0,177.70422000000002
900,30.387573238272,0.6844412244427619,30.18498941668352,0.12753902816107124,6.0,177.70422000000002
901,30.421337208536745,0.18350695849191845,30.218753386948265,0.08517845709911992,6.0,177.70422000000002
902,30.455101178801492,-0.29169003545756905,30.252517357213012,-0.03213476532466924,6.0,177.70422000000002
903,30.48886514906624,-0.653524584950289,30.28628132747776,-0.23085055128450538,6.0,177.70422000000002
904,30.522629119330986,-0.8907738945587671,30.320045297742507,-0.48032913803185845,6.0,177.70422000000002
905,30.556393089595733,-1.0457705317043813,30.353809268007254,-0.7435304439076083,6.0,177.70422000000002
906,30.59015705986048,-1.1578096487476126,30.387573238272,-0.9958241531946289,6.0,177.70422000000002
907,30.623921030125228,-1.219789528656117,30.421337208536748,-1.2181063910178425,6.0,177.70422000000002
908,30.65768500038997,-1.181147412293319,30.455101178801492,-1.3738148202310265,6.0,177.70422000000002
909,30.69144897065472,-0.9932849223779803,30.48886514906624,-1.39579625097054,6.0,177.70422000000002
910,30.725212940919466,-0.6609130023212082,30.522629119330986,-1.2050956316825512,6.0,177.70422000000002
911,30.758976911184213,-0.25698030858576565,30.556393089595733,-0.7598828546745365,6.0,177.70422000000002
912,30.79274088144896,0.11412483380481157,30.59015705986048,-0.1048910123217462,6.0,177.70422000000002
913,30.826504851713707,0.379121646910239,30.623921030125228,0.6176959064755035,6.0,177.70422000000002
914,30.86026882197845,0.5358521981292491,30.65768500038997,1.2146559342055694,6.0,177.70422000000002
915,30.8940327922432,0.6395431207886128,30.69144897065472,1.5259830771222895,6.0,177.70422000000002
916,30.927796762507946,0.7471742778091228,30.725212940919466,1.4994598301181898,6.0,177.70422000000002
917,30.961560732772693,0.8646641292957649,30.758976911184213,1.211511996155544,6.0,177.70422000000002
918,30.99532470303744,0.9379536091088228,30.79274088144896,0.8227449131916311,6.0,177.70422000000002
919,31.029088673302187,0.8942715921747685,30.826504851713707,0.49503715063974274,6.0,177.70422000000002
920,31.062852643566934,0.7023978026039667,30.860268821978455,0.317001559279621,6.0,177.70422000000002
921,31.096616613831678,0.40738865880409336,30.8940327922432,0.2760461778064876,6.0,177.70422000000002
922,31.130380584096425,0.11358127989204192,30.927796762507946,0.2861776849756899,6.0,177.70422000000002
923,31.164144554361172,-0.07405474296032569,30.961560732772693,0.24949310416497825,6.0,177.70422000000002
924,31.19790852462592,-0.11179694476733702,30.99532470303744,0.11344700217358944,6.0,177.70422000000002
925,31.231672494890667,-0.04324314195547118,31.029088673302187,-0.10725640288549655,6.0,177.70422000000002
926,31.265436465155414,0.024308157318511995,31.062852643566934,-0.351902202661928,6.0,177.70422000000002
927,31.299200435420158,-0.0231365131449949,31.096616613831678,-0.5604036230250917,6.0,177.70422000000002
928,31.332964405684905,-0.24753876014571263,31.130380584096425,-0.7140055597144263,6.0,177.70422000000002
929,31.366728375949652,-0.6258522999142074,31.164144554361172,-0.843391408126552,6.0,177.70422000000002
930,31.4004923462144,-1.054381759969811,31.19790852462592,-0.9975455224171349,6.0,177.70422000000002
931,31.434256316479146,-1.3857851352175827,31.231672494890667,-1.191799768017493,6.0,177.70422000000002
932,31.468020286743894,-1.4847705201746835,31.265436465155414,-1.3699041538335628,6.0,177.70422000000002
933,31.50178425700864,-1.284587496877659,31.29920043542016,-1.4114121526898358,6.0,177.70422000000002
934,31.535548227273384,-0.8223606278162341,31.332964405684905,-1.1904072928378286,6.0,177.70422000000002
935,31.56931219753813,-0.23179471554126518,31.366728375949652,-0.6569410925226746,6.0,177.70422000000002
936,31.60307616780288,0.311733355303177,31.4004923462144,0.10894314065850304,6.0,177.70422000000002
937,31.636840138067626,0.6695715038013945,31.434256316479146,0.9106771700523508,6.0,177.70422000000002
938,31.670604108332373,0.7991594635277698,31.468020286743894,1.5167583374259304,6.0,177.70422000000002
939,31.70436807859712,0.7623424990559322,31.50178425700864,1.7673774828508877,6.0,177.70422000000002
940,31.738132048861868,0.681728942991856,31.535548227273388,1.6456586666091573,6.0,177.70422000000002
941,31.77189601912661,0.6719285247039949,31.56931219753813,1.2744462953287083,6.0,177.70422000000002
942,31.80565998939136,0.781447460730123,31.60307616780288,0.8443521523515524,6.0,177.70422000000002
943,31.839423959656106,0.9717118653007797,31.636840138067626,0.516967126895763,6.0,177.70422000000002
944,31.873187929920853,1.1402002947187353,31.670604108332373,0.356295853064948,6.0,177.70422000000002
945,31.9069519001856,1.1737377079274256,31.70436807859712,0.319929784302698,6.0,177.70422000000002
946,31.940715870450347,1.0042373561831592,31.738132048861868,0.30548461344132194,6.0,177.70422000000002
947,31.97447984071509,0.639297095112926,31.77189601912661,0.2189845220776619,6.0,177.70422000000002
948,32.00824381097984,0.15452944198227278,31.805659989391362,0.0247660146474152,6.0,177.70422000000002
949,32.042007781244585,-0.34464264528948063,31.839423959656106,-0.24764761297563834,6.0,177.70422000000002
950,32.075771751509336,-0.768924404812608,31.873187929920856,-0.5363518247043628,6.0,177.70422000000002
951,32.10953572177408,-1.0746798011398697,31.9069519001856,-0.7927111292731844,6.0,177.70422000000002
952,32.14329969203882,-1.2645486660390046,31.940715870450344,-1.0071547571549597,6.0,177.70422000000002
953,32.177063662303574,-1.3638125109248567,31.974479840715095,-1.1973852495809865,6.0,177.70422000000002
954,32.21082763256832,-1.3902855856001617,32.008243810979835,-1.368288772051379,6.0,177.70422000000002
955,32.24459160283307,-1.337268502801792,32.042007781244585,-1.4751973670332714,6.0,177.70422000000002
956,32.27835557309781,-1.1787450361750507,32.07577175150933,-1.4242000054226611,6.0,177.70422000000002
957,32.312119543362556,-0.891369972843751,32.10953572177407,-1.120394766646063,6.0,177.70422000000002
958,32.34588351362731,-0.47967036323338197,32.14329969203882,-0.5396334773182405,6.0,177.70422000000002
959,32.37964748389205,0.008376696953246558,32.17706366230357,0.22424054416425054,6.0,177.70422000000002
960,32.4134114541568,0.4843788407455517,32.21082763256832,0.9761181004616749,6.0,177.70422000000002
961,32.447175424421545,0.8447251063008911,32.24459160283306,1.5005835357246249,6.0,177.70422000000002
962,32.480939394686295,1.0110652279162529,32.27835557309781,1.6635468586325266,6.0,177.70422000000002
963,32.51470336495104,0.9675265941131254,32.312119543362556,1.4746218273939724,6.0,177.70422000000002
964,32.54846733521578,0.7734632946906128,32.3458835136273,1.0739347698841368,6.0,177.70422000000002
965,32.58223130548053,0.5408387997297679,32.37964748389205,0.6536569360984603,6.0,177.70422000000002
966,32.61599527574528,0.38330662144313965,32.37964748389205,0.6536569360984603,7.0,207.32159000000001
967,32.64975924601003,0.3613655084775781,32.4134114541568,0.3620627760793742,7.0,207.32159000000001
968,32.68352321627477,0.45454980972721715,32.447175424421545,0.24344715523502758,7.0,207.32159000000001
969,32.71728718653952,0.5780521279141101,32.480939394686295,0.24086437890241622,7.0,207.32159000000001
970,32.751051156804266,0.6322219451618524,32.54846733521578,0.1836501345572483,6.0,177.70422000000002
971,32.78481512706901,0.5518138060338533,32.582231305480526,0.01291990186595296,6.0,177.70422000000002
972,32.81857909733376,0.3264226109694124,32.61599527574528,-0.23867529238923654,6.0,177.70422000000002
973,32.852343067598504,-0.011303243951600834,32.61599527574528,-0.23867529238923654,7.0,207.32159000000001
974,32.886107037863255,-0.4098799921628053,32.64975924601003,-0.5255027191096632,7.0,207.32159000000001
975,32.919871008128,-0.8128283854256649,32.68352321627477,-0.809694564255261,7.0,207.32159000000001
976,32.95363497839275,-1.1565605344649459,32.71728718653952,-1.0663891711176428,7.0,207.32159000000001
977,32.98739894865749,-1.3669813110799776,32.751051156804266,-1.2654080767590836,7.0,207.32159000000001
978,33.021162918922236,-1.373162409526854,32.78481512706901,-1.3520443591564342,7.0,207.32159000000001
979,33.05492688918699,-1.1395719737265129,32.81857909733376,-1.2533364402800449,7.0,207.32159000000001
980,33.08869085945173,-0.6965764412643299,32.852343067598504,-0.917239021053278,7.0,207.32159000000001
981,33.12245482971648,-0.14327444504960887,32.886107037863255,-0.36278115060050703,7.0,207.32159000000001
982,33.156218799981225,0.386344069465676,32.919871008128,0.29756121983023504,7.0,207.32159000000001
983,33.189982770245976,0.7774668153992027,32.98739894865749,1.252189058505513,6.0,177.70422000000002
984,33.22374674051072,0.9787720506676141,33.021162918922236,1.3138451001436906,6.0,177.70422000000002
985,33.25751071077546,1.0134604183971552,33.05492688918698,1.1215160312682624,6.0,177.70422000000002
986,33.291274681040214,0.9531340920854494,33.08869085945173,0.8090142308693604,6.0,177.70422000000002
987,33.32503865130496,0.8716597757728625,33.122454829716474,0.5247065346034785,6.0,177.70422000000002
988,33.35880262156971,0.8069722290429536,33.46009453236395,-0.9442497348918398,-3.0,-88.85211000000001
989,33.39256659183445,0.7516227147248965,33.49385850262869,-1.0926255546643184,-3.0,-88.85211000000001
990,33.4263305620992,0.6720244430743391,33.52762247289344,-1.2456082155981056,-3.0,-88.85211000000001
991,33.46009453236395,0.5379253204326144,33.25751071077546,0.31560493758480773,6.0,177.70422000000002
992,33.49385850262869,0.3410043787299117,33.29127468104021,0.19277367729479722,6.0,177.70422000000002
993,33.52762247289344,0.09369054569873322,33.32503865130496,-0.03243500679073659,6.0,177.70422000000002
994,33.561386443158185,-0.18512993394426241,33.3588026215697,-0.3094194586146109,6.0,177.70422000000002
995,33.595150413422935,-0.4830497882635885,33.39256659183445,-0.5724150722084203,6.0,177.70422000000002
996,33.62891438368768,-0.7947066035283211,33.426330562099196,-0.7820863124526691,6.0,177.70422000000002
997,33.66267835395242,-1.1093590055336875,33.46009453236394,-0.9442497348918057,6.0,177.70422000000002
998,33.69644232421717,-1.395009911436822,33.49385850262869,-1.0926255546643184,6.0,177.70422000000002
999,33.73020629448192,-1.5930955197023218,33.527622472893434,-1.2456082155980734,6.0,177.70422000000002
1000,33.76397026474667,-1.6341530649925482,33.561386443158185,-1.3664269867475811,6.0,177.70422000000002
1001,33.79773423501141,-1.4730854871985763,33.59515041342293,-1.359006358098834,6.0,177.70422000000002
1002,33.83149820527616,-1.1257296673819241,33.62891438368768,-1.112813680426015,6.0,177.70422000000002
1003,33.865262175540906,-0.677440891188875,33.66267835395242,-0.5770337874813042,6.0,177.70422000000002
1004,33.89902614580565,-0.24614093942737303,33.696442324217166,0.1816746813359652,6.0,177.70422000000002
1005,33.9327901160704,0.08243230002819868,33.73020629448192,0.9813753790681677,6.0,177.70422000000002
1006,33.966554086335144,0.3008554869500895,33.76397026474666,1.5960208593608325,6.0,177.70422000000002
1007,34.000318056599895,0.47189435617001996,33.79773423501141,1.8593226868161858,6.0,177.70422000000002
1008,34.03408202686464,0.6737530832854479,33.831498205276155,1.7417958717425357,6.0,177.70422000000002
1009,34.06784599712939,0.9408883816249598,33.865262175540906,1.357264139877763,6.0,177.70422000000002
1010,34.10160996739413,1.2400944979944364,33.89902614580565,0.897818323954056,6.0,177.70422000000002
1011,34.135373937658876,1.4916417756490967,33.93279011607039,0.5366216087225024,6.0,177.70422000000002
1012,34.16913790792363,1.616050077453611,33.966554086335144,0.35223968168119574,6.0,177.70422000000002
1013,34.20290187818837,1.5762272751713196,34.00031805659989,0.31121198749683243,6.0,177.70422000000002
1014,34.23666584845312,1.3921469355950757,34.03408202686464,0.31014193528332257,6.0,177.70422000000002
1015,34.270429818717865,1.122838871916614,34.06784599712938,0.2461121864913564,6.0,177.70422000000002
1016,34.304193788982616,0.8286395626325432,34.10160996739413,0.07252479282167815,6.0,177.70422000000002
1017,34.33795775924736,0.5362917415892281,34.135373937658876,-0.1887091251190514,6.0,177.70422000000002
1018,34.3717217295121,0.22664641036238195,34.16913790792362,-0.47844002342354425,6.0,177.70422000000002
1019,34.405485699776854,-0.14703511264029398,34.20290187818837,-0.7482744341989117,6.0,177.70422000000002
1020,34.4392496700416,-0.6174020562950872,34.236665848453114,-0.9900849992664816,6.0,177.70422000000002
1021,34.47301364030635,-1.1593850832592854,34.270429818717865,-1.2257378636795215,6.0,177.70422000000002
1022,34.50677761057109,-1.67224960030176,34.30419378898261,-1.4637365248014618,6.0,177.70422000000002
1023,34.54054158083584,-2.0056812370618182,34.33795775924736,-1.655075079163238,6.0,177.70422000000002
1024,34.574305551100586,-2.024451572173901,34.3717217295121,-1.6869276033551288,6.0,177.70422000000002
1025,34.60806952136533,-1.6804995030772543,34.40548569977685,-1.4321466132360507,6.0,177.70422000000002
1026,34.64183349163008,-1.050727566714454,34.4392496700416,-0.8338744647638592,6.0,177.70422000000002
1027,34.675597461894824,-0.3134884904482683,34.47301364030634,0.027315777886927517,6.0,177.70422000000002
1028,34.709361432159575,0.3287318704566765,34.50677761057109,0.9354569330864603,6.0,177.70422000000002
1029,34.74312540242432,0.7386219190314711,34.540541580835836,1.6227790755569376,6.0,177.70422000000002
1030,34.77688937268906,0.8936076788361185,34.60806952136533,1.7175131250929137,5.0,148.08685
1031,34.81065334295381,0.8692498184775567,34.64183349163008,1.2377839392109586,5.0,148.08685
1032,34.84441731321856,0.7745557093400783,34.675597461894824,0.6917125213077204,5.0,148.08685
1033,34.87818128348331,0.6864762101294647,34.709361432159575,0.2913719177040563,5.0,148.08685
1034,34.91194525374805,0.6224941084037156,34.74312540242432,0.1310926309136997,5.0,148.08685
1035,34.9457092240128,0.5555391964300846,35.114529075336534,-1.5550390189180479,-5.0,-148.08685
1036,34.979473194277546,0.44652737522448727,34.81065334295381,0.26592396888338665,5.0,148.08685
1037,35.01323716454229,0.2680902825459479,34.84441731321856,0.2929450490098316,5.0,148.08685
1038,35.04700113480704,0.011831461990365787,34.87818128348331,0.1731318863175164,5.0,148.08685
1039,35.080765105071784,-0.3123339760703738,34.91194525374805,-0.08967683567089689,5.0,148.08685
1040,35.114529075336534,-0.6755827776586211,34.9457092240128,-0.4412856770003172,5.0,148.08685
1041,35.14829304560128,-1.0276697793329068,34.979473194277546,-0.8189417328290404,5.0,148.08685
1042,35.18205701586603,-1.29833685139944,35.013237164542296,-1.1735098666322499,5.0,148.08685
1043,35.21582098613077,-1.4094891684991186,35.04700113480704,-1.4603169063197792,5.0,148.08685
1044,35.249584956395516,-1.300463272673543,35.080765105071784,-1.6161930809187268,5.0,148.08685
1045,35.28334892666027,-0.9585682076386466,35.114529075336534,-1.5550390189180479,5.0,148.08685
1046,35.31711289692501,-0.43686136827765554,35.14829304560128,-1.201830690781234,5.0,148.08685
1047,35.35087686718976,0.15769110594248675,35.18205701586603,-0.5521043101197655,5.0,148.08685
1048,35.384640837454505,0.704629371507416,35.21582098613077,0.2849522012699269,5.0,148.08685
1049,35.418404807719256,1.115230798181443,35.24958495639552,1.101122590180569,5.0,148.08685
1050,35.452168777984,1.3534379730277906,35.28334892666027,1.6678772026242943,5.0,148.08685
1051,35.48593274824874,1.4242629110708727,35.31711289692501,1.8398980224505948,5.0,148.08685
1052,35.519696718513494,1.3496276075254607,35.35087686718976,1.622879471484582,5.0,148.08685
1053,35.55346068877824,1.1580648439830326,35.384640837454505,1.165088617714941,5.0,148.08685
1054,35.58722465904299,0.8933840011518728,35.418404807719256,0.6784672953883223,5.0,148.08685
1055,35.62098862930773,0.6223649647009636,35.452168777984,0.3353291562572314,5.0,148.08685
1056,35.65475259957248,0.4197253763506723,35.48593274824875,0.19671561532735132,5.0,148.08685
1057,35.688516569837226,0.33129091324650684,35.55346068877824,0.241124729793254,4.0,118.46948
1058,35.72228054010197,0.33987544258410896,35.58722465904298,0.1924713743510102,4.0,118.46948
1059,35.75604451036672,0.36087194089079705,35.62098862930773,0.01583781164722101,4.0,118.46948
1060,35.789808480631464,0.2760108820640805,35.654752599572475,-0.25926421653603426,4.0,118.46948
1061,35.823572450896215,-0.009308368202200518,35.688516569837226,-0.5654095348569123,4.0,118.46948
1062,35.85733642116096,-0.5126729079212565,35.72228054010197,-0.8469748767828276,4.0,118.46948
1063,35.89110039142571,-1.1515560346942906,35.75604451036672,-1.0894803600945497,4.0,118.46948
1064,35.92486436169045,-1.7635688990385328,35.789808480631464,-1.309485532838711,4.0,118.46948
1065,35.9586283319552,-2.1637015772263837,35.82357245089621,-1.5132763235097164,4.0,118.46948
1066,35.99239230221995,-2.215476929149288,35.85733642116096,-1.6559220991222812,4.0,118.46948
1067,36.02615627248469,-1.8870124795842045,35.8911003914257,-1.6363971644811688,4.0,118.46948
1068,36.05992024274944,-1.2678857024010797,35.92486436169045,-1.343690764598192,4.0,118.46948
1069,36.093684213014186,-0.5354079678924809,35.9586283319552,-0.733195757495894,4.0,118.46948
1070,36.12744818327893,0.11959518866401182,35.99239230221994,0.11479662217657594,4.0,118.46948
1071,36.16121215354368,0.5726514292391468,36.02615627248469,0.9998313295375648,4.0,118.46948
1072,36.19497612380842,0.8080368899921341,36.059920242749435,1.6782039101354949,4.0,118.46948
1073,36.228740094073174,0.9020244993529952,36.093684213014186,1.9735628231969822,4.0,118.46948
1074,36.26250406433792,0.9621988065842794,36.12744818327893,1.8580483244924035,4.0,118.46948
1075,36.29626803460267,1.0619124459999307,36.16121215354368,1.4574469616289851,4.0,118.46948
1076,36.33003200486741,1.205091082916528,36.19497612380842,0.9798229489251654,4.0,118.46948
1077,36.363795975132156,1.3330438157175521,36.22874009407317,0.6106649245992689,4.0,118.46948
1078,36.39755994539691,1.3610704383760388,36.26250406433792,0.4322356027774713,4.0,118.46948
1079,36.43132391566165,1.2222477480153577,36.29626803460266,0.405648838700347,4.0,118.46948
1080,36.4650878859264,0.8985660982350414,36.33003200486741,0.41639654315171964,4.0,118.46948
1081,36.498851856191145,0.4279339781921319,36.363795975132156,0.3504268064083748,4.0,118.46948
1082,36.532615826455896,-0.11376962471536527,36.43132391566166,-0.1413013105790337,3.0,88.85211000000001
1083,36.56637979672064,-0.6438879860097166,36.4650878859264,-0.46883681998052623,3.0,88.85211000000001
1084,36.60014376698538,-1.098347049231954,36.498851856191145,-0.7626485174558034,3.0,88.85211000000001
1085,36.633907737250134,-1.4380447595449877,36.532615826455896,-1.005336007652361,3.0,88.85211000000001
1086,36.66767170751488,-1.6384065667735401,36.56637979672064,-1.2235634562635236,3.0,88.85211000000001
1087,36.70143567777963,-1.6760015577792617,36.60014376698539,-1.4453345418551375,3.0,88.85211000000001
1088,36.73519964804437,-1.5266693783462373,36.633907737250134,-1.6470092276262402,3.0,88.85211000000001
1089,36.76896361830912,-1.1802488780061777,36.667671707514884,-1.7315126934110647,3.0,88.85211000000001
1090,36.802727588573866,-0.6633897398977225,36.70143567777963,-1.5638137988942864,3.0,88.85211000000001
1091,36.83649155883861,-0.05192678694242886,36.73519964804437,-1.0528088313826731,3.0,88.85211000000001
1092,36.87025552910336,0.5431611449878315,36.76896361830912,-0.23206830739384632,3.0,88.85211000000001
1093,36.904019499368104,1.0141886069324275,36.802727588573866,0.7175110705497995,3.0,88.85211000000001
1094,36.937783469632855,1.2966218635310078,36.83649155883862,1.5297935988962954,3.0,88.85211000000001
1095,36.9715474398976,1.3843393780189002,36.87025552910336,1.9730252840507447,3.0,88.85211000000001
1096,37.00531141016235,1.3141140781178458,36.90401949936811,1.959629275762056,3.0,88.85211000000001
1097,37.03907538042709,1.136334421815835,36.937783469632855,1.5823175063431107,3.0,88.85211000000001
1098,37.07283935069184,0.8944873590655837,36.9715474398976,1.057505271630865,3.0,88.85211000000001
1099,37.10660332095659,0.6230209013229044,37.00531141016235,0.6114754426596879,3.0,88.85211000000001
1100,37.14036729122133,0.35615176822068767,37.03907538042709,0.3740257550136001,3.0,88.85211000000001
1101,37.17413126148608,0.1320969863405825,37.072839350691844,0.33415895942018736,3.0,88.85211000000001
1102,37.207895231750825,-0.017049520178301455,37.10660332095659,0.3732621051395332,3.0,88.85211000000001
1103,37.241659202015576,-0.08479403646161827,37.14036729122134,0.3480061525356219,3.0,88.85211000000001
1104,37.27542317228032,-0.10316383821382613,37.17413126148608,0.17201582977490895,3.0,88.85211000000001
1105,37.30918714254506,-0.13632541457088207,37.207895231750825,-0.14723685854295873,3.0,88.85211000000001
1106,37.342951112809814,-0.2553308092706005,37.241659202015576,-0.5294464319763789,3.0,88.85211000000001
1107,37.37671508307456,-0.5049198359348332,37.27542317228032,-0.8795177329217564,3.0,88.85211000000001
1108,37.41047905333931,-0.8755473312104082,37.30918714254507,-1.1430524563114624,3.0,88.85211000000001
1109,37.44424302360405,-1.2920600323520552,37.342951112809814,-1.324842717142859,3.0,88.85211000000001
1110,37.478006993868796,-1.6279059114205277,37.37671508307456,-1.46070378874878,3.0,88.85211000000001
1111,37.51177096413355,-1.7469063948359913,37.41047905333931,-1.5635721701476257,3.0,88.85211000000001
1112,37.54553493439829,-1.5607974641310673,37.44424302360405,-1.5838802935448193,3.0,88.85211000000001
1113,37.57929890466304,-1.0768190774532973,37.4780069938688,-1.4187639240565746,3.0,88.85211000000001
1114,37.613062874927785,-0.4078526206147793,37.51177096413355,-0.9742779180682509,3.0,88.85211000000001
1115,37.646826845192535,0.2668015318920306,37.5455349343983,-0.2459405052520343,3.0,88.85211000000001
1116,37.68059081545728,0.7759476134441647,37.57929890466304,0.6376744447439966,3.0,88.85211000000001
1117,37.71435478572202,1.030177309304531,37.613062874927785,1.4469310222442817,3.0,88.85211000000001
1118,37.74811875598677,1.0548102015813579,37.646826845192535,1.9500887726542533,3.0,88.85211000000001
1119,37.78188272625152,0.9628448547144322,37.71435478572202,1.7150947015427422,2.0,59.23474
1120,37.81564669651627,0.8836303224685298,37.74811875598677,1.2043616449036063,2.0,59.23474
1121,37.84941066678101,0.8894067179081605,37.78188272625152,0.7164094796907382,2.0,59.23474
1122,37.88317463704576,0.9617979271271917,37.81564669651627,0.4081148843487885,2.0,59.23474
1123,37.916938607310506,1.0151441648555464,37.84941066678101,0.30794431366506475,2.0,59.23474
1124,37.95070257757525,0.9599940025319363,37.883174637045755,0.3283686965515145,2.0,59.23474
1125,37.98446654784,0.7663681040628487,37.916938607310506,0.33537329151321926,2.0,59.23474
1126,38.018230518104744,0.4852369970245583,37.95070257757525,0.229341354649854,2.0,59.23474
1127,38.051994488369495,0.212059962049103,37.98446654784,-0.008530592836776266,2.0,59.23474
1128,38.08575845863424,0.016291188267597515,38.018230518104744,-0.3244765545910936,2.0,59.23474
1129,38.11952242889899,-0.11243379660012696,38.051994488369495,-0.6412019890425125,2.0,59.23474
1130,38.15328639916373,-0.2605156751314698,38.08575845863424,-0.9113222580594483,2.0,59.23474
1131,38.187050369428476,-0.5287599678250119,38.11952242889898,-1.1392808866495099,2.0,59.23474
1132,38.22081433969323,-0.9524254765399078,38.15328639916373,-1.3577902982911452,2.0,59.23474
1133,38.25457830995797,-1.4540733455006363,38.187050369428476,-1.5755657767505975,2.0,59.23474
1134,38.28834228022272,-1.861326792548343,38.22081433969323,-1.7348192251159247,2.0,59.23474
1135,38.322106250487465,-1.9859746595472425,38.25457830995797,-1.7153006987254997,2.0,59.23474
1136,38.355870220752216,-1.725001803366767,38.28834228022272,-1.394205496975363,2.0,59.23474
1137,38.38963419101696,-1.125749839905172,38.322106250487465,-0.7321399667814806,2.0,59.23474
1138,38.4233981612817,-0.37162889972694635,38.35587022075221,0.1697152991894748,2.0,59.23474
1139,38.457162131546454,0.30992138806793407,38.38963419101696,1.0859726059819927,2.0,59.23474
1140,38.4909261018112,0.7644964762604846,38.4233981612817,1.758187423099447,2.0,59.23474
1141,38.52469007207595,0.9795073589169737,38.457162131546454,2.0131920737329083,2.0,59.23474
1142,38.55845404234069,1.06123271107442,38.4909261018112,1.841340381464073,2.0,59.23474
1143,38.592218012605436,1.1397390954617403,38.52469007207594,1.3910596205490076,2.0,59.23474
1144,38.62598198287019,1.2708544316296984,38.55845404234069,0.8861761659233203,2.0,59.23474
1145,38.65974595313493,1.402379942437025,38.62598198287019,0.3525894025387847,1.0,29.61737
1146,38.69350992339968,1.4216350773398367,38.62598198287019,0.3525894025387847,2.0,59.23474
1147,38.727273893664425,1.2429680937080447,38.65974595313493,0.3469041847206747,2.0,59.23474
1148,38.761037863929175,0.8692100667405688,38.69350992339968,0.3739643426111402,2.0,59.23474
1149,38.79480183419392,0.38575194657740736,38.727273893664425,0.3167480564213892,2.0,59.23474
1150,38.82856580445866,-0.1003958433521044,38.76103786392917,0.12710065198237963,2.0,59.23474
1151,38.86232977472341,-0.5244209635516927,38.79480183419392,-0.16158692656625426,2.0,59.23474
1152,38.89609374498816,-0.8829504494724522,38.86232977472341,-0.7361155324236922,1.0,29.61737
1153,38.92985771525291,-1.2014033944116391,38.896093744988164,-0.9466531430311186,1.0,29.61737
1154,38.96362168551765,-1.4814068508080591,38.89609374498816,-0.9466531430310772,2.0,59.23474
1155,38.9973856557824,-1.670887625366152,38.92985771525291,-1.143541745099514,2.0,59.23474
1156,39.031149626047146,-1.680496206913325,38.96362168551765,-1.3713598319563214,2.0,59.23474
1157,39.06491359631189,-1.4380299927305842,38.997385655782395,-1.616746200909731,2.0,59.23474
1158,39.09867756657664,-0.9465095215195084,39.031149626047146,-1.7776856474668383,2.0,59.23474
1159,39.132441536841384,-0.3060410387813745,39.06491359631189,-1.6952791874817814,2.0,59.23474
1160,39.166205507106135,0.319638347485104,39.09867756657664,-1.2418869067259763,2.0,59.23474
1161,39.19996947737088,0.7748739869290965,39.132441536841384,-0.41783688250443124,2.0,59.23474
1162,39.23373344763563,0.9797872691578542,39.166205507106135,0.6074800868315174,2.0,59.23474
1163,39.26749741790037,0.9569761666847797,39.19996947737088,1.5477887207496976,2.0,59.23474
1164,39.301261388165116,0.8082554915839286,39.23373344763562,2.125808158345205,2.0,59.23474
1165,39.33502535842987,0.6590605644169225,39.26749741790037,2.20383954223575,2.0,59.23474
1166,39.36878932869461,0.5995232738266247,39.301261388165116,1.8445397320347834,2.0,59.23474
1167,39.40255329895936,0.6487754781848896,39.36878932869462,0.7423299113478665,1.0,29.61737
1168,39.436317269224105,0.756531559818322,39.40255329895936,0.443071137958915,1.0,29.61737
1169,39.470081239488856,0.8372505272048587,39.43631726922411,0.3968066150268936,1.0,29.61737
1170,39.5038452097536,0.8163570669826021,39.470081239488856,0.4875083356410851,1.0,29.61737
1171,39.53760918001834,0.6647119033970735,39.5038452097536,0.5393523402548263,1.0,29.61737
1172,39.571373150283094,0.4069034964353322,39.53760918001835,0.4165968009857591,1.0,29.61737
1173,39.60513712054784,0.10279825041561175,39.571373150283094,0.08882319679938425,1.0,29.61737
1174,39.63890109081259,-0.18696803975946508,39.605137120547845,-0.3680118538145231,1.0,29.61737
1175,39.67266506107733,-0.4340206353184229,39.63890109081259,-0.8277156960674457,1.0,29.61737
1176,39.70642903134208,-0.6546761327806471,39.67266506107734,-1.1901720723419102,1.0,29.61737
1177,39.740193001606826,-0.8902215234074864,39.70642903134208,-1.4320126682313479,1.0,29.61737
1178,39.77395697187157,-1.1621994798687225,39.740193001606826,-1.602008606491118,1.0,29.61737
1179,39.80772094213632,-1.4310237985289125,39.77395697187158,-1.764344926046974,1.0,29.61737
1180,39.841484912401064,-1.5920516905091748,39.80772094213632,-1.9255807856114695,1.0,29.61737
1181,39.875248882665815,-1.5228986986576167,39.84148491240107,-1.9954319746682057,1.0,29.61737
1182,39.90901285293056,-1.160077936917235,39.875248882665815,-1.8164634802246196,1.0,29.61737
1183,39.9427768231953,-0.5578414618258088,39.90901285293056,-1.2570450583027657,1.0,29.61737
1184,39.97654079346005,0.11325830526942446,39.94277682319531,-0.31677129280722505,1.0,29.61737
1185,40.0103047637248,0.6375085965648601,39.97654079346005,0.82545189650088,1.0,29.61737
1186,40.04406873398955,0.8616635653475979,40.010304763724804,1.8636345599678588,1.0,29.61737
1187,40.07783270425429,0.7781352115207966,40.04406873398955,2.498867864952599,1.0,29.61737
1188,40.11159667451904,0.5296154933968845,40.0778327042543,2.5816262761177047,1.0,29.61737
1189,40.145360644783786,0.3258948292010447,40.11159667451904,2.1795281469360024,1.0,29.61737
1190,40.17912461504853,0.32246526951747273,40.145360644783786,1.5327670272170444,1.0,29.61737
1191,40.21288858531328,0.5386971831399506,40.179124615048536,0.9264366919782653,1.0,29.61737
1192,40.246652555578024,0.8641661448493184,40.21288858531328,0.5538946086793756,1.0,29.61737
1193,40.280416525842774,1.1379383351838572,40.24665255557803,0.4434792241585935,1.0,29.61737
1194,40.31418049610752,1.2402258171653817,40.280416525842774,0.4788403912560314,1.0,29.61737
1195,40.34794446637227,1.1400128089144337,40.314180496107525,0.4890771947797035,1.0,29.61737
1196,40.38170843663701,0.8823219431584132,40.34794446637227,0.35007915880836254,1.0,29.61737
1197,40.415472406901756,0.538975610107063,40.38170843663701,0.04031608062214394,1.0,29.61737
1198,40.44923637716651,0.16217904738295372,40.41547240690176,-0.37203419340417504,1.0,29.61737
1199,40.48300034743125,-0.23106094000813268,40.44923637716651,-0.7908037951286515,1.0,29.61737
1200,40.516764317696,-0.6406688863930338,40.48300034743126,-1.1559075328505541,1.0,29.61737
1201,40.550528287960745,-1.050735543431163,40.516764317696,-1.4666976392288689,1.0,29.61737
1202,40.584292258225496,-1.4093724842960196,40.55052828796075,-1.7510883914499042,1.0,29.61737
1203,40.61805622849024,-1.6378452959796501,40.584292258225496,-2.0046519395895777,1.0,29.61737
1204,40.65182019875498,-1.6642214634354322,40.61805622849024,-2.147311662571252,1.0,29.61737
1205,40.685584169019734,-1.459828843260955,40.65182019875499,-2.0385195444938984,1.0,29.61737
1206,40.71934813928448,-1.056605549926387,40.685584169019734,-1.555095939262425,1.0,29.61737
1207,40.75311210954923,-0.5377430693049511,40.719348139284484,-0.6893487471369818,1.0,29.61737
1208,40.78687607981397,-0.009214018728632927,40.75311210954923,0.39927947729492974,1.0,29.61737
1209,40.82064005007872,0.4342232897008089,40.78687607981398,1.4251342999071934,1.0,29.61737
1210,40.854404020343466,0.7361699026844268,40.82064005007872,2.0982637377457456,1.0,29.61737
1211,40.88816799060821,0.8895957199478695,40.854404020343466,2.260149971929472,1.0,29.61737
1212,40.92193196087296,0.9281231298059259,40.88816799060822,1.9539328435051968,1.0,29.61737
1213,40.955695931137704,0.903169718548609,40.92193196087296,1.3902466522749164,1.0,29.61737
1214,40.989459901402455,0.8591167513259454,40.95569593113771,0.832953256543068,1.0,29.61737
1215,41.0232238716672,0.8172801906526562,40.989459901402455,0.4722365946794901,1.0,29.61737
1216,41.05698784193195,0.7731438304825802,41.023223871667206,0.3520902814837087,1.0,29.61737
1217,41.09075181219669,0.7054751671716875,41.05698784193195,0.3818182820934092,1.0,29.61737
1218,41.12451578246144,0.5914930274153823,41.09075181219669,0.41279227909369043,1.0,29.61737
1219,41.15827975272619,0.41954266998406836,41.124515782461444,0.3297154029994815,1.0,29.61737
1220,41.19204372299093,0.19269422436564168,41.15827975272619,0.1048915477185659,1.0,29.61737
1221,41.22580769325568,-0.07650243721241763,41.19204372299094,-0.20855811620206502,1.0,29.61737
1222,41.259571663520425,-0.3734614350251084,41.22580769325568,-0.5305477401184978,1.0,29.61737
1223,41.29333563378517,-0.6835116340673967,41.259571663520425,-0.8141807795212007,1.0,29.61737
1224,41.32709960404992,-0.9852845392119377,41.293335633785176,-1.0703131566244433,1.0,29.61737
1225,41.36086357431466,-1.2402571244987013,41.32709960404992,-1.3391974499957018,1.0,29.61737
1226,41.394627544579414,-1.3899932817829068,41.36086357431467,-1.6281876927375425,1.0,29.61737
1227,41.42839151484416,-1.371709460466796,41.394627544579414,-1.8612841677324832,1.0,29.61737
1228,41.46215548510891,-1.1502722447670868,41.428391514844165,-1.8853313169301167,1.0,29.61737
1229,41.49591945537365,-0.7485132392964942,41.46215548510891,-1.5448034090881029,1.0,29.61737
1230,41.529683425638396,-0.25292927367413415,41.49591945537365,-0.7887885259381584,1.0,29.61737
1231,41.56344739590315,0.2148764846842746,41.5296834256384,0.25810368842396747,1.0,29.61737
1232,41.59721136616789,0.5484606184685245,41.56344739590315,1.3172025208981237,1.0,29.61737
1233,41.63097533643264,0.7016050751789578,41.5972113661679,2.0711569629728492,1.0,29.61737
1234,41.664739306697385,0.704251367427998,41.63097533643264,2.312513421805145,1.0,29.61737
1235,41.698503276962136,0.6414666961345036,41.66473930669739,2.0399647399059533,1.0,29.61737
1236,41.73226724722688,0.6064253751714074,41.698503276962136,1.4478387321069324,1.0,29.61737
1237,41.76603121749162,0.6516352959332732,41.73226724722688,0.8188204250769898,1.0,29.61737
1238,41.799795187756374,0.764240364323174,41.76603121749163,0.3840241025029597,1.0,29.61737
1239,41.83355915802112,0.8784649039748437,41.799795187756374,0.22656955062834103,1.0,29.61737
1240,41.86732312828587,0.9166754865560109,41.833559158021124,0.2727527139070135,1.0,29.61737
1241,41.90108709855061,0.8332034312091229,41.86732312828587,0.36223074135607664,1.0,29.61737
1242,41.93485106881536,0.6341152617228717,41.90108709855062,0.3472180005265563,1.0,29.61737
1243,41.968615039080106,0.36313561443091824,41.93485106881536,0.16241169964851918,1.0,29.61737
1244,42.00237900934485,0.06716698203244036,41.968615039080106,-0.16680416931242217,1.0,29.61737
1245,42.0361429796096,-0.23222301908224507,42.00237900934486,-0.5689088166904654,1.0,29.61737
