frame_idx,t_rppg,rppg_n,t_gt_pair,ppg_n_pair,lag_samples,lag_frames
0,0.0,-0.022661308818976676,-0.4085524045232607,-0.052520234248169005,12.0,352.46396400000003
1,0.03404603371027173,-0.5064596004104888,-0.374506370812989,-0.052520234248169005,12.0,352.46396400000003
2,0.06809206742054345,-0.737920758779195,-0.3404603371027172,-0.052520234248169005,12.0,352.46396400000003
3,0.10213810113081517,-0.6078874666182345,-0.3064143033924455,-0.052520234248169005,12.0,352.46396400000003
4,0.1361841348410869,-0.2098938679667137,-0.27236826968217376,-0.052520234248169005,12.0,352.46396400000003
5,0.17023016855135864,0.21966105991510307,-0.23832223597190205,-0.052520234248169005,12.0,352.46396400000003
6,0.20427620226163035,0.4403844443603571,-0.20427620226163035,-0.052520234248169005,12.0,352.46396400000003
7,0.23832223597190208,0.3413297031839978,-0.1702301685513586,-0.052520234248169005,12.0,352.46396400000003
8,0.2723682696821738,-0.005712896762917681,-0.13618413484108688,-0.052520234248169005,12.0,352.46396400000003
9,0.3064143033924455,-0.39467654222193294,-0.10213810113081517,-0.052520234248169005,12.0,352.46396400000003
10,0.3404603371027173,-0.5991093936049856,-0.06809206742054341,-0.052520234248169005,12.0,352.46396400000003
11,0.374506370812989,-0.4860077350336849,-0.034046033710271706,-0.052520234248169005,12.0,352.46396400000003
12,0.4085524045232607,-0.0735743702112738,0.0,-0.052520234248169005,12.0,352.46396400000003
13,0.44259843823353245,0.4863423468187128,0.03404603371027176,-0.3992732965309237,12.0,352.46396400000003
14,0.47664447194380416,0.9802489384044917,0.06809206742054347,-0.7417616089036096,12.0,352.46396400000003
15,0.5106905056540759,1.2182069600042622,0.10213810113081523,-1.018667887366499,12.0,352.46396400000003
16,0.5447365393643476,1.096166404519356,0.13618413484108693,-1.1068619257784877,12.0,352.46396400000003
17,0.5787825730746193,0.6190874722600832,0.17023016855135864,-0.8846947389920415,12.0,352.46396400000003
18,0.612828606784891,-0.11009149571107012,0.20427620226163035,-0.32531521023675675,12.0,352.46396400000003
19,0.6468746404951627,-0.9186102452629398,0.23832223597190205,0.4468337658014841,12.0,352.46396400000003
20,0.6809206742054346,-1.5980275949106064,0.27236826968217387,1.1857155579344492,12.0,352.46396400000003
21,0.7149667079157063,-1.9489400106255803,0.3064143033924456,1.6334282863962628,12.0,352.46396400000003
22,0.749012741625978,-1.8420775858444134,0.3404603371027173,1.64823134556007,12.0,352.46396400000003
23,0.7830587753362497,-1.278926302286365,0.374506370812989,1.2736657592374332,12.0,352.46396400000003
24,0.8171048090465214,-0.4133997173843811,0.4085524045232607,0.7073229059079338,12.0,352.46396400000003
25,0.8511508427567931,0.49380804345641793,0.4425984382335324,0.189333917973308,12.0,352.46396400000003
26,0.8851968764670649,1.1769476828392922,0.4766444719438042,-0.12317521871153314,12.0,352.46396400000003
27,0.9192429101773366,1.4741335792505883,0.5106905056540759,-0.22561865158761218,12.0,352.46396400000003
28,0.9532889438876083,1.3863604068411297,0.5447365393643476,-0.24556322329119487,12.0,352.46396400000003
29,0.98733497759788,1.0555208589216076,0.5787825730746193,-0.3495409155162038,12.0,352.46396400000003
30,1.0213810113081518,0.6758723686736887,0.6128286067848912,-0.6313854114574051,12.0,352.46396400000003
31,1.0554270450184235,0.39220598840428117,0.6468746404951629,-1.043192919209921,12.0,352.46396400000003
32,1.0894730787286953,0.24390048374548695,0.6809206742054346,-1.406599861669782,12.0,352.46396400000003
33,1.123519112438967,0.1806569711807827,0.7149667079157063,-1.501202742923066,12.0,352.46396400000003
34,1.1575651461492387,0.12660030163798267,0.749012741625978,-1.1867468569266102,12.0,352.46396400000003
35,1.1916111798595104,0.041575747363993464,0.7830587753362497,-0.4943763741110876,12.0,352.46396400000003
36,1.225657213569782,-0.05936472559234507,0.8171048090465214,0.3668304938442518,12.0,352.46396400000003
37,1.2597032472800538,-0.12986905659342757,0.8511508427567931,1.0985640194873678,12.0,352.46396400000003
38,1.2937492809903255,-0.1311170395016118,0.8851968764670648,1.4529749275681527,12.0,352.46396400000003
39,1.3277953147005972,-0.05507799620408853,0.9192429101773365,1.34725007434236,12.0,352.46396400000003
40,1.3618413484108691,0.07788265632592936,0.9532889438876084,0.8911670729310375,12.0,352.46396400000003
41,1.3958873821211408,0.2349929013681119,0.9873349775978801,0.3173104038565718,12.0,352.46396400000003
42,1.4299334158314125,0.3819767214263072,1.0213810113081518,-0.14190413101338797,12.0,352.46396400000003
43,1.4639794495416842,0.4818994059640075,1.0554270450184235,-0.36219557297368493,12.0,352.46396400000003
44,1.498025483251956,0.4921387313821904,1.0894730787286953,-0.36813383909177566,12.0,352.46396400000003
45,1.5320715169622277,0.37408857029982817,1.123519112438967,-0.2947826966624745,12.0,352.46396400000003
46,1.5661175506724994,0.1165696888541345,1.1575651461492387,-0.2979229594758572,12.0,352.46396400000003
47,1.600163584382771,-0.24398151894135672,1.1916111798595104,-0.4607839937905422,12.0,352.46396400000003
48,1.6342096180930428,-0.6273007007933568,1.225657213569782,-0.7421427075906231,12.0,352.46396400000003
49,1.6682556518033145,-0.942687872691842,1.2597032472800538,-0.9901488532155973,12.0,352.46396400000003
50,1.7023016855135862,-1.135048928679427,1.2937492809903255,-1.0170375363126132,12.0,352.46396400000003
51,1.7363477192238579,-1.213913212781428,1.3277953147005972,-0.701112573016083,12.0,352.46396400000003
52,1.7703937529341298,-1.2436370706000814,1.3618413484108691,-0.0651481188176588,12.0,352.46396400000003
53,1.8044397866444015,-1.2978356141641707,1.3958873821211408,0.7137641548661422,12.0,352.46396400000003
54,1.8384858203546732,-1.40592005607348,1.4299334158314125,1.3754794487221242,12.0,352.46396400000003
55,1.872531854064945,-1.5260251676048193,1.4639794495416842,1.6964171085236293,12.0,352.46396400000003
56,1.9065778877752166,-1.5609132842555897,1.498025483251956,1.594041575406847,12.0,352.46396400000003
57,1.9406239214854883,-1.4048377456784051,1.5320715169622277,1.15920721669369,12.0,352.46396400000003
58,1.97466995519576,-0.9929772951617047,1.5661175506724994,0.60104529101912,12.0,352.46396400000003
59,2.0087159889060318,-0.3321438585153619,1.600163584382771,0.13860285577437803,12.0,352.46396400000003
60,2.0427620226163037,0.49164420066716824,1.634209618093043,-0.10088338802050134,12.0,352.46396400000003
61,2.076808056326575,1.327572547110124,1.6682556518033145,-0.1280875749388993,12.0,352.46396400000003
62,2.110854090036847,2.0004541890532126,1.7023016855135864,-0.06787538424773513,12.0,352.46396400000003
63,2.1449001237471186,2.3754179468809626,2.1108540900368467,1.326902748271724,1.0,29.371997
64,2.1789461574573905,2.420254805613715,2.1449001237471186,1.0333093836823106,1.0,29.371997
65,2.212992191167662,2.2214195595641555,2.17894615745739,0.6201790045712139,1.0,29.371997
66,2.247038224877934,1.9309095777339407,2.212992191167662,0.27255017729928877,1.0,29.371997
67,2.2810842585882054,1.6721735972372234,2.2470382248779335,0.08918229763145741,1.0,29.371997
68,2.3151302922984773,1.4689926604454753,2.2810842585882054,0.059237901756984186,1.0,29.371997
69,2.3491763260087493,1.2477362064548958,2.3151302922984773,0.09391298007599788,1.0,29.371997
70,2.3832223597190207,0.9097701147186352,2.349176326008749,0.08435410442428908,1.0,29.371997
71,2.4172683934292927,0.4198753681316468,2.3832223597190207,-0.04574211820042201,1.0,29.371997
72,2.451314427139564,-0.15262388799187335,2.4172683934292922,-0.31023233010163653,1.0,29.371997
73,2.485360460849836,-0.66714829532503,2.451314427139564,-0.6547989341315338,1.0,29.371997
74,2.5194064945601076,-0.9950934576100747,2.4853604608498356,-0.9706210372480482,1.0,29.371997
75,2.5534525282703795,-1.0967553909457755,2.5194064945601076,-1.1251819774651457,1.0,29.371997
76,2.587498561980651,-1.0412782584738058,2.553452528270379,-1.0088778687216478,1.0,29.371997
77,2.621544595690923,-0.9569566314863077,2.587498561980651,-0.5873602911732234,1.0,29.371997
78,2.6555906294011944,-0.946103296643439,2.6215445956909225,0.06417313921418488,1.0,29.371997
79,2.6896366631114663,-1.0222739193431978,2.6555906294011944,0.7713819555269946,1.0,29.371997
80,2.7236826968217382,-1.1097123290796262,2.6896366631114663,1.3231287773058342,1.0,29.371997
81,2.7577287305320097,-1.1000730090699269,2.723682696821738,1.559932038870206,1.0,29.371997
82,2.7917747642422817,-0.9253951355415331,2.7577287305320097,1.4412203826892704,1.0,29.371997
83,2.825820797952553,-0.6022415696574402,2.791774764242281,1.053810277593611,1.0,29.371997
84,2.859866831662825,-0.22496520415403592,2.825820797952553,0.5596568314830406,1.0,29.371997
85,2.8939128653730966,0.08338529692454937,2.8598668316628246,0.11649974255241535,1.0,29.371997
86,2.9279588990833685,0.23240546487448457,2.8939128653730966,-0.1838630259307082,1.0,29.371997
87,2.96200493279364,0.20393949558261895,2.8939128653730966,-0.1838630259307082,2.0,58.743994
88,2.996050966503912,0.05082558761949888,2.9279588990833685,-0.33265935828680093,2.0,58.743994
89,3.0300970002141834,-0.14011498112638837,2.96200493279364,-0.3801571964946094,2.0,58.743994
90,3.0641430339244553,-0.29725913172565627,2.996050966503912,-0.39567449748363537,2.0,58.743994
91,3.0981890676347272,-0.3978934092295167,3.030097000214184,-0.4371054427462427,2.0,58.743994
92,3.1322351013449987,-0.46791949196298704,3.0641430339244553,-0.539413033101979,2.0,58.743994
93,3.1662811350552706,-0.5474525234101479,3.1322351013449987,-0.9460570630220984,1.0,29.371997
94,3.200327168765542,-0.6443914911385874,3.16628113505527,-1.1850984795401711,1.0,29.371997
95,3.234373202475814,-0.7104529368564575,3.1662811350552706,-1.1850984795401742,2.0,58.743994
96,3.2684192361860855,-0.6624643409057611,3.200327168765542,-1.342165217587387,2.0,58.743994
97,3.3024652698963575,-0.43902453853193574,3.234373202475814,-1.3089975913279137,2.0,58.743994
98,3.336511303606629,-0.052898089780182,3.2684192361860855,-1.0051862547025618,2.0,58.743994
99,3.370557337316901,0.40156567266187454,3.3024652698963575,-0.433199852031614,2.0,58.743994
100,3.4046033710271724,0.7953050095698462,3.336511303606629,0.29532870176848663,2.0,58.743994
101,3.4386494047374443,1.0353297349893351,3.370557337316901,0.9894531742622968,2.0,58.743994
102,3.4726954384477158,1.1126554667398243,3.4046033710271724,1.4577598868183868,2.0,58.743994
103,3.5067414721579877,1.0980461658370704,3.4386494047374443,1.5939098868553137,2.0,58.743994
104,3.5407875058682596,1.0912029810624597,3.4386494047374443,1.5939098868553137,3.0,88.11599100000001
105,3.574833539578531,1.1571443367842447,3.4726954384477158,1.4193644865136599,3.0,88.11599100000001
106,3.608879573288803,1.2890494991109325,3.5067414721579877,1.060903708255046,3.0,88.11599100000001
107,3.6429256069990745,1.4180341572014954,3.8812478429709767,-0.4546244578805332,-7.0,-205.603979
108,3.6769716407093465,1.4594632608486666,3.9152938766812486,-0.5640668637795018,-7.0,-205.603979
109,3.711017674419618,1.3630735061842303,3.94933991039152,-0.6339045570299461,-7.0,-205.603979
110,3.74506370812989,1.1352274957124846,3.94933991039152,-0.6339045570299461,-6.0,-176.23198200000002
111,3.7791097418401614,0.8240049070609349,3.9833859441017916,-0.6623179788889957,-6.0,-176.23198200000002
112,3.8131557755504333,0.48403618543623106,4.0174319778120635,-0.6587668601793322,-6.0,-176.23198200000002
113,3.8472018092607048,0.1487309262428015,4.051478011522335,-0.6510621166754809,-6.0,-176.23198200000002
114,3.8812478429709767,-0.1728049118053174,4.085524045232607,-0.6818012106447366,-6.0,-176.23198200000002
115,3.9152938766812486,-0.4777666493560085,4.119570078942879,-0.7867615960042404,-6.0,-176.23198200000002
116,3.94933991039152,-0.7503202592680984,4.15361611265315,-0.9609441992026108,-6.0,-176.23198200000002
117,3.983385944101792,-0.9619152757948175,4.187662146363422,-1.1331547078593955,-6.0,-176.23198200000002
118,4.0174319778120635,-1.0958851413674806,4.221708180073694,-1.1748364049120035,-6.0,-176.23198200000002
119,4.051478011522335,-1.176078695578857,4.255754213783966,-0.9539353959802297,-6.0,-176.23198200000002
120,4.085524045232607,-1.2675344796776165,4.289800247494238,-0.413827943199772,-6.0,-176.23198200000002
121,4.119570078942878,-1.4357849543410295,4.323846281204509,0.3691383116288971,-6.0,-176.23198200000002
122,4.15361611265315,-1.6888413059807823,4.357892314914781,1.193931299804151,-6.0,-176.23198200000002
123,4.187662146363422,-1.947614963949663,4.391938348625053,1.8163197411032326,-6.0,-176.23198200000002
124,4.221708180073694,-2.07441666265743,4.425984382335325,2.0617206000550756,-6.0,-176.23198200000002
125,4.255754213783965,-1.9480090769770748,4.425984382335324,2.0617206000550796,-5.0,-146.859985
126,4.289800247494237,-1.5396615228104602,4.460030416045596,1.9037594256599382,-5.0,-146.859985
127,4.323846281204509,-0.9410937488474632,4.494076449755868,1.4642439999184997,-5.0,-146.859985
128,4.357892314914781,-0.323724971846258,4.562168517176412,0.5077222449755205,-6.0,-176.23198200000002
129,4.391938348625053,0.14834546847540372,4.596214550886684,0.2504943745999134,-6.0,-176.23198200000002
130,4.425984382335324,0.39917329210820984,4.630260584596955,0.1514232677677594,-6.0,-176.23198200000002
131,4.460030416045596,0.46725520616373317,4.664306618307227,0.12883179229982208,-6.0,-176.23198200000002
132,4.494076449755868,0.46593266020499485,4.6983526520174985,0.09303574442706809,-6.0,-176.23198200000002
133,4.52812248346614,0.5098061871089004,4.7323986857277704,-0.009808280365691145,-6.0,-176.23198200000002
134,4.562168517176411,0.6553041365908217,4.7664447194380415,-0.18219120399153702,-6.0,-176.23198200000002
135,4.596214550886683,0.8836532913589839,4.800490753148313,-0.3861891720208446,-6.0,-176.23198200000002
136,4.630260584596955,1.1218612179621765,4.834536786858585,-0.5685281746773767,-6.0,-176.23198200000002
137,4.664306618307227,1.2809644026137332,4.868582820568857,-0.6866740310654557,-6.0,-176.23198200000002
138,4.6983526520174985,1.2951684761905022,4.902628854279129,-0.727434252271308,-6.0,-176.23198200000002
139,4.73239868572777,1.1532827848879124,4.9366748879894,-0.7138370309101005,-6.0,-176.23198200000002
140,4.7664447194380415,0.9132521688901796,4.970720921699672,-0.6978252442262621,-6.0,-176.23198200000002
141,4.800490753148313,0.6883103802071489,5.004766955409944,-0.7379160142270926,-6.0,-176.23198200000002
142,4.834536786858585,0.6009180392383069,5.038812989120216,-0.8660636298646978,-6.0,-176.23198200000002
143,4.868582820568856,0.7193786791527301,5.072859022830487,-1.056620060059429,-6.0,-176.23198200000002
144,4.902628854279128,1.010591418081739,5.106905056540759,-1.2168623911557679,-6.0,-176.23198200000002
145,4.9366748879894,1.3428244767563904,4.834536786858585,-0.5685281746773767,3.0,88.11599100000001
146,4.970720921699672,1.5449110997106044,4.868582820568857,-0.6866740310654557,3.0,88.11599100000001
147,5.004766955409943,1.4887293207090828,4.902628854279128,-0.7274342522713083,3.0,88.11599100000001
148,5.038812989120215,1.1442547512997485,4.902628854279128,-0.7274342522713083,4.0,117.487988
149,5.072859022830487,0.5786540430506076,5.277135225092118,1.0711406010598827,-6.0,-176.23198200000002
150,5.106905056540759,-0.08704715767409782,5.31118125880239,1.5471377461382605,-6.0,-176.23198200000002
151,5.140951090251031,-0.726732772406282,5.345227292512662,1.6710510313019664,-6.0,-176.23198200000002
152,5.174997123961302,-1.2389490594618335,5.379273326222933,1.4717117177901502,-6.0,-176.23198200000002
153,5.209043157671574,-1.5603424538808612,5.413319359933205,1.0963312311517546,-6.0,-176.23198200000002
154,5.243089191381846,-1.6745937754965916,5.4473653936434765,0.7262246164319289,-6.0,-176.23198200000002
155,5.277135225092118,-1.6158573749679805,5.481411427353748,0.4861982534877916,-6.0,-176.23198200000002
156,5.311181258802389,-1.455238977991916,5.174997123961302,-0.9412803601073846,4.0,117.487988
157,5.345227292512661,-1.2677797722471307,5.209043157671574,-0.3801056287990115,4.0,117.487988
158,5.379273326222933,-1.0968000704260406,5.583549528484563,0.3601978355075867,-6.0,-176.23198200000002
159,5.413319359933205,-0.9407701004730067,5.617595562194835,0.2379543942026529,-6.0,-176.23198200000002
160,5.4473653936434765,-0.7733309140339567,5.651641595905107,0.015687436911751205,-6.0,-176.23198200000002
161,5.4814114273537475,-0.5797064401560436,5.685687629615378,-0.25299253200198124,-6.0,-176.23198200000002
162,5.5154574610640195,-0.3775233173044664,5.71973366332565,-0.49028284855920123,-6.0,-176.23198200000002
163,5.549503494774291,-0.20297759278610997,5.753779697035922,-0.6383944210881601,-6.0,-176.23198200000002
164,5.583549528484563,-0.07380817337463788,5.787825730746194,-0.6892491133111404,-6.0,-176.23198200000002
165,5.617595562194834,0.03786694760867903,5.787825730746193,-0.6892491133111405,-5.0,-146.859985
166,5.651641595905106,0.19460248449411524,5.821871764456465,-0.6868920671259612,-5.0,-146.859985
167,5.685687629615378,0.4445495277507281,5.855917798166737,-0.7024041391024917,-5.0,-146.859985
168,5.71973366332565,0.7668321771986115,5.924009865587281,-0.9551962072168471,-6.0,-176.23198200000002
169,5.753779697035921,1.0559813243115024,5.958055899297552,-1.1183540567934482,-6.0,-176.23198200000002
170,5.787825730746193,1.1670032753337538,5.992101933007824,-1.1539173276066537,-6.0,-176.23198200000002
171,5.821871764456465,0.9972664855221238,6.026147966718096,-0.9413806057811486,-6.0,-176.23198200000002
172,5.855917798166737,0.5500191642061731,6.060194000428368,-0.44099864895757146,-6.0,-176.23198200000002
173,5.889963831877009,-0.06394346928274372,6.09424003413864,0.2612013453077046,-6.0,-176.23198200000002
174,5.92400986558728,-0.6835537780202264,6.094240034138639,0.2612013453076861,-5.0,-146.859985
175,5.958055899297552,-1.1691529315658462,6.128286067848911,0.972172526414728,-5.0,-146.859985
176,5.992101933007824,-1.441143935684152,6.1623321015591825,1.4737279149239728,-5.0,-146.859985
177,6.026147966718096,-1.4732719274272112,6.230424168979726,1.4274014787193576,-6.0,-176.23198200000002
178,6.060194000428367,-1.2675697120040939,6.264470202689997,1.0126609077736073,-6.0,-176.23198200000002
179,6.094240034138639,-0.8453811328236095,6.264470202689997,1.0126609077736073,-5.0,-146.859985
180,6.128286067848911,-0.26049936719513006,6.298516236400269,0.5692641787045276,-5.0,-146.859985
181,6.1623321015591825,0.39055557063762836,6.332562270110541,0.24889212948819428,-5.0,-146.859985
182,6.1963781352694545,0.9856055857449139,6.366608303820813,0.1065453024258291,-5.0,-146.859985
183,6.2304241689797255,1.4167803531794334,6.400654337531084,0.09781042625964945,-5.0,-146.859985
184,6.264470202689997,1.6263831316868755,6.434700371241356,0.123666430990885,-5.0,-146.859985
185,6.298516236400269,1.6182377956914087,6.468746404951628,0.09156119730471211,-5.0,-146.859985
186,6.332562270110541,1.445663525453997,6.5027924386619,-0.03948529943705696,-5.0,-146.859985
187,6.366608303820812,1.1882186930225485,6.536838472372171,-0.24747783309673163,-5.0,-146.859985
188,6.400654337531084,0.9260278883857916,6.570884506082443,-0.4684485564615328,-5.0,-146.859985
189,6.434700371241356,0.7164053264268889,6.604930539792715,-0.6347665184581651,-5.0,-146.859985
190,6.468746404951628,0.578638872033055,6.638976573502987,-0.7112122042429107,-5.0,-146.859985
191,6.502792438661899,0.49264165339263544,6.673022607213258,-0.7127646705317304,-5.0,-146.859985
192,6.536838472372171,0.41186365379077833,6.70706864092353,-0.6959386027572971,-5.0,-146.859985
193,6.570884506082443,0.2857597941046868,6.741114674633802,-0.7255906813526358,-5.0,-146.859985
194,6.604930539792715,0.08565810846487436,6.775160708344074,-0.8303622030371302,-5.0,-146.859985
195,6.638976573502987,-0.1747950103221189,6.809206742054346,-0.9693175682779382,-5.0,-146.859985
196,6.673022607213258,-0.43879358340758107,6.843252775764617,-1.0332777482791533,-5.0,-146.859985
197,6.70706864092353,-0.6357776318867601,6.877298809474889,-0.8908170869908155,-5.0,-146.859985
198,6.741114674633802,-0.7301398606339491,6.9113448431851605,-0.46303119631191636,-5.0,-146.859985
199,6.775160708344074,-0.7546321625426236,6.945390876895432,0.21292656872682875,-5.0,-146.859985
200,6.809206742054345,-0.7967835844540782,6.9794369106057035,0.974520834644816,-5.0,-146.859985
201,6.843252775764617,-0.9397493632920282,7.013482944315975,1.594554293842598,-5.0,-146.859985
202,6.877298809474889,-1.1945047577546923,7.047528978026247,1.8841921856902883,-5.0,-146.859985
203,6.9113448431851605,-1.4703244154455533,7.081575011736519,1.7809218034088017,-5.0,-146.859985
204,6.9453908768954316,-1.6094346441084006,7.11562104544679,1.371571725120821,-5.0,-146.859985
205,6.9794369106057035,-1.4726734224490352,6.843252775764617,-1.0332777482791533,4.0,117.487988
206,7.013482944315975,-1.0281958399090616,6.877298809474889,-0.8908170869908155,4.0,117.487988
207,7.047528978026247,-0.38733999373365036,6.9113448431851605,-0.46303119631191636,4.0,117.487988
208,7.081575011736519,0.2399145628481187,7.251805180287878,0.0011199835162022578,-5.0,-146.859985
209,7.11562104544679,0.6478815634315812,7.285851213998149,0.015311840298336902,-5.0,-146.859985
210,7.149667079157062,0.7371668361619469,7.319897247708421,0.031486943318992544,-5.0,-146.859985
211,7.183713112867334,0.5586396920371445,7.353943281418693,-0.029225570554206822,-5.0,-146.859985
212,7.217759146577606,0.2804820582841356,7.387989315128965,-0.18671607147221184,-5.0,-146.859985
213,7.251805180287877,0.1024263271333227,7.456081382549508,-0.6173412471334158,-6.0,-176.23198200000002
214,7.285851213998149,0.16186135857738262,7.49012741625978,-0.7711892527784142,-6.0,-176.23198200000002
215,7.319897247708421,0.4729132177099723,7.183713112867334,0.37743751129014086,4.0,117.487988
216,7.353943281418693,0.9233132209592456,7.217759146577606,0.09566775238608995,4.0,117.487988
217,7.387989315128965,1.3300031330651347,7.28585121399815,0.015311840298337324,3.0,88.11599100000001
218,7.422035348839236,1.526533829305506,7.319897247708421,0.031486943318992544,3.0,88.11599100000001
219,7.456081382549508,1.437368035284804,7.353943281418693,-0.029225570554206822,3.0,88.11599100000001
220,7.49012741625978,1.1013296630646014,7.387989315128965,-0.18671607147221184,3.0,88.11599100000001
221,7.524173449970052,0.6359634232138905,7.422035348839237,-0.4043205664408909,3.0,88.11599100000001
222,7.558219483680323,0.16669325820353625,7.422035348839236,-0.4043205664408854,4.0,117.487988
223,7.592265517390595,-0.2381639894248433,7.456081382549508,-0.6173412471334158,4.0,117.487988
224,7.626311551100867,-0.5887158572940971,7.524173449970052,-0.8510862932186315,3.0,88.11599100000001
225,7.6603575848111385,-0.9367187163570413,7.558219483680324,-0.8891698792519128,3.0,88.11599100000001
226,7.6944036185214095,-1.3041144148572255,7.592265517390595,-0.9432211493767972,3.0,88.11599100000001
227,7.7284496522316815,-1.630985713614111,7.626311551100867,-1.0538938868737393,3.0,88.11599100000001
228,7.762495685941953,-1.790424327796612,7.6603575848111385,-1.2014213924674997,3.0,88.11599100000001
229,7.796541719652225,-1.6679444240891006,7.69440361852141,-1.2904073510613827,3.0,88.11599100000001
230,7.830587753362497,-1.2476177677771203,7.728449652231682,-1.183032193970857,3.0,88.11599100000001
231,7.864633787072768,-0.6372688928978422,7.762495685941953,-0.7746278101138311,3.0,88.11599100000001
232,7.89867982078304,-0.012694815986546527,7.796541719652225,-0.07335575485795814,3.0,88.11599100000001
233,7.932725854493312,0.47618043249009345,7.830587753362497,0.7688830379764746,3.0,88.11599100000001
234,7.966771888203584,0.7705904216897042,7.830587753362497,0.7688830379764746,4.0,117.487988
235,8.000817921913855,0.9035917872846837,7.864633787072768,1.5061552230985453,4.0,117.487988
236,8.034863955624127,0.9511231409920714,7.89867982078304,1.9108359308335638,4.0,117.487988
237,8.068909989334399,0.9763417067410229,7.932725854493312,1.8855131993733825,4.0,117.487988
238,8.10295602304467,1.001658522889363,7.966771888203584,1.5069536107432655,4.0,117.487988
239,8.137002056754943,1.0152996572433906,8.000817921913855,0.9770912383003743,4.0,117.487988
240,8.171048090465215,0.9951328736249937,8.034863955624127,0.5143176465981614,4.0,117.487988
241,8.205094124175487,0.9262703468091698,8.068909989334399,0.2507237287203637,4.0,117.487988
242,8.239140157885757,0.8024708424320417,8.102956023044669,0.1890149654117789,4.0,117.487988
243,8.273186191596029,0.6205537260993752,8.137002056754941,0.23142012386426347,4.0,117.487988
244,8.3072322253063,0.38260373458032393,8.171048090465213,0.2523545957952181,4.0,117.487988
245,8.341278259016573,0.1079266545685521,8.205094124175485,0.16936364842542487,4.0,117.487988
246,8.375324292726845,-0.16048040504603786,8.239140157885757,-0.023188123055602666,4.0,117.487988
247,8.409370326437116,-0.3724360249899699,8.273186191596029,-0.2674302999211547,4.0,117.487988
248,8.443416360147388,-0.5075702522669259,8.3072322253063,-0.4867933083519525,4.0,117.487988
249,8.47746239385766,-0.603619464823074,8.341278259016573,-0.6339481780026066,4.0,117.487988
250,8.51150842756793,-0.7424274401362185,8.375324292726843,-0.7159738393452972,4.0,117.487988
251,8.545554461278202,-0.9902816331857193,8.409370326437115,-0.7842650865515721,4.0,117.487988
252,8.579600494988474,-1.3308448586411126,8.443416360147387,-0.8944214590645733,4.0,117.487988
253,8.613646528698746,-1.6437234777800949,8.477462393857659,-1.057279878873008,4.0,117.487988
254,8.647692562409018,-1.7544673490520406,8.51150842756793,-1.2102921369550699,4.0,117.487988
255,8.68173859611929,-1.5321235832320281,8.545554461278202,-1.232542135546137,4.0,117.487988
256,8.715784629829562,-0.9738268030048569,8.579600494988474,-1.004973103640571,4.0,117.487988
257,8.749830663539834,-0.21979466574322487,8.613646528698746,-0.4879482320855161,4.0,117.487988
258,8.783876697250106,0.5127777615469699,8.647692562409018,0.2306155095665081,4.0,117.487988
259,8.817922730960376,1.0345542903778708,8.681738596119288,0.9538361684653818,4.0,117.487988
260,8.851968764670648,1.264049218185962,8.71578462982956,1.4601533984854167,4.0,117.487988
261,8.88601479838092,1.2424102345785362,8.749830663539832,1.6086551516704777,4.0,117.487988
262,8.920060832091192,1.0862181070093169,8.783876697250104,1.404114346781491,4.0,117.487988
263,8.954106865801464,0.9145028053371482,8.817922730960376,0.9846433772027098,4.0,117.487988
264,8.988152899511736,0.7932222455886893,8.851968764670648,0.542883810664319,4.0,117.487988
265,9.022198933222008,0.7228346147226271,8.88601479838092,0.229629668704101,4.0,117.487988
266,9.05624496693228,0.6650898319127323,8.920060832091192,0.09318725678419747,4.0,117.487988
267,9.090291000642551,0.5827234323302618,8.954106865801464,0.0806203400923083,4.0,117.487988
268,9.124337034352822,0.46427301757052614,8.988152899511734,0.08963005762743721,4.0,117.487988
269,9.158383068063094,0.3231094778177412,9.022198933222006,0.03499394653590245,4.0,117.487988
270,9.192429101773365,0.17862898679871925,9.056244966932278,-0.1080586940091674,4.0,117.487988
271,9.226475135483637,0.03517175451716456,9.09029100064255,-0.30308537086490583,4.0,117.487988
272,9.26052116919391,-0.12876505942326136,9.124337034352822,-0.48825285646478167,4.0,117.487988
273,9.294567202904181,-0.3541919038817805,9.158383068063094,-0.62286102024487,4.0,117.487988
274,9.328613236614453,-0.6765581050691892,9.192429101773365,-0.7138954444838999,4.0,117.487988
275,9.362659270324725,-1.0886707390205193,9.192429101773367,-0.7138954444839046,5.0,146.859985
276,9.396705304034997,-1.5115255648289845,9.22647513548364,-0.8045626682007136,5.0,146.859985
277,9.430751337745267,-1.8010940544270488,9.26052116919391,-0.9307121818398345,5.0,146.859985
278,9.46479737145554,-1.8052612495341487,9.294567202904181,-1.07350302774615,5.0,146.859985
279,9.498843405165811,-1.448110489172927,9.328613236614453,-1.1437549482298792,5.0,146.859985
280,9.532889438876083,-0.7873029210565136,9.362659270324725,-1.0178593857107674,5.0,146.859985
281,9.566935472586355,0.00039171031007077036,9.430751337745267,0.04463686050274106,4.0,117.487988
282,9.600981506296627,0.7006972659671714,9.46479737145554,0.7987693212893786,4.0,117.487988
283,9.635027540006899,1.158470606033005,9.498843405165811,1.4248260524597027,4.0,117.487988
284,9.66907357371717,1.332823275185142,9.498843405165813,1.4248260524597187,5.0,146.859985
285,9.703119607427443,1.2893474734556845,9.532889438876085,1.732655541173925,5.0,146.859985
286,9.737165641137713,1.146889506919552,9.566935472586355,1.6587653288380109,5.0,146.859985
287,9.771211674847985,1.0129016361832,9.600981506296627,1.2907646300979845,5.0,146.859985
288,9.805257708558257,0.9371240150809956,9.635027540006899,0.8125055242984952,5.0,146.859985
289,9.839303742268529,0.8999491870702468,9.66907357371717,0.40626412834053566,5.0,146.859985
290,9.8733497759788,0.8360512507126693,9.703119607427443,0.16991061345287775,5.0,146.859985
291,9.907395809689072,0.6791708702042939,9.737165641137715,0.09113903194883896,5.0,146.859985
292,9.941441843399344,0.4046966539272326,9.771211674847986,0.08274103147254579,5.0,146.859985
293,9.975487877109616,0.047225718409858404,9.805257708558258,0.04875931333016267,5.0,146.859985
294,10.009533910819886,-0.3175241657434418,9.839303742268529,-0.06037079667778117,5.0,146.859985
295,10.043579944530158,-0.6165417263453759,9.8733497759788,-0.23251124688754451,5.0,146.859985
296,10.07762597824043,-0.8214329314015943,9.907395809689072,-0.42010341182105215,5.0,146.859985
297,10.111672011950702,-0.9600432944861045,9.941441843399344,-0.5848206423674747,5.0,146.859985
298,10.145718045660974,-1.0888571258075948,9.975487877109616,-0.7278097779318462,5.0,146.859985
299,10.179764079371246,-1.2432167278280366,10.009533910819888,-0.8833662258041941,5.0,146.859985
300,10.213810113081518,-1.397697586845914,10.04357994453016,-1.0786759659630067,5.0,146.859985
301,10.24785614679179,-1.4652914164795876,10.077625978240432,-1.2870080801224881,5.0,146.859985
302,10.281902180502062,-1.342003836694749,10.111672011950704,-1.4109680135818754,5.0,146.859985
303,10.315948214212332,-0.9728487447304003,10.145718045660974,-1.3178366865293263,5.0,146.859985
304,10.349994247922604,-0.39685958496196816,10.179764079371246,-0.9159846681460292,5.0,146.859985
305,10.384040281632876,0.259506653873033,10.213810113081518,-0.22899867494433668,5.0,146.859985
306,10.418086315343148,0.8363198277376949,10.24785614679179,0.5839288754455899,5.0,146.859985
307,10.45213234905342,1.2083290160041926,10.281902180502062,1.285213620517149,5.0,146.859985
308,10.486178382763692,1.331887117816307,10.315948214212334,1.6681154912080698,5.0,146.859985
309,10.520224416473964,1.2527746514271625,10.349994247922606,1.6552159301982299,5.0,146.859985
310,10.554270450184235,1.0760784212778443,10.384040281632878,1.3275760524333025,5.0,146.859985
311,10.588316483894507,0.912758694033522,10.41808631534315,0.8701749270563227,5.0,146.859985
312,10.622362517604778,0.8270864574833878,10.45213234905342,0.4709473569248586,5.0,146.859985
313,10.65640855131505,0.8107641097415201,10.486178382763692,0.23418374297167552,5.0,146.859985
314,10.690454585025321,0.7970649031774467,10.520224416473964,0.15257967076143686,5.0,146.859985
315,10.724500618735593,0.7063157661819822,10.554270450184235,0.14230356036288333,5.0,146.859985
316,10.758546652445865,0.49653910447335964,10.588316483894507,0.109648067715395,5.0,146.859985
317,10.792592686156137,0.19048037176060356,10.62236251760478,0.00580556277159162,5.0,146.859985
318,10.82663871986641,-0.1370670514571198,10.656408551315051,-0.15914500224453212,5.0,146.859985
319,10.860684753576681,-0.4057296843674045,10.690454585025323,-0.34293698234687525,5.0,146.859985
320,10.894730787286953,-0.5821653675724163,10.724500618735595,-0.5132187422235458,5.0,146.859985
321,10.928776820997223,-0.7029581207564901,10.758546652445865,-0.67253877183957,5.0,146.859985
322,10.962822854707495,-0.8472651731462746,10.792592686156137,-0.8473663324475973,5.0,146.859985
323,10.996868888417767,-1.0725487820819295,10.82663871986641,-1.048148991013791,5.0,146.859985
324,11.030914922128039,-1.356830977849541,10.860684753576681,-1.2299386377457053,5.0,146.859985
325,11.06496095583831,-1.5914367047136113,10.894730787286953,-1.287777845804068,5.0,146.859985
326,11.099006989548583,-1.6335899049128377,10.928776820997225,-1.1020630683634387,5.0,146.859985
327,11.133053023258855,-1.385282026195572,10.962822854707497,-0.6149458089880337,5.0,146.859985
328,11.167099056969127,-0.849654914054028,10.996868888417769,0.10913222735281626,5.0,146.859985
329,11.201145090679397,-0.13637703412306526,11.030914922128039,0.8849029911725168,5.0,146.859985
330,11.235191124389669,0.5808509508781131,11.06496095583831,1.480557418059978,5.0,146.859985
331,11.26923715809994,1.1315366594422394,11.099006989548583,1.7267471698706978,5.0,146.859985
332,11.303283191810213,1.4114754984703632,11.133053023258855,1.5956537625225902,5.0,146.859985
333,11.337329225520484,1.4156685898931392,11.167099056969127,1.2033534298988207,5.0,146.859985
334,11.371375259230756,1.2269210146577285,11.201145090679399,0.7382953789611832,5.0,146.859985
335,11.405421292941028,0.9667027201602807,11.23519112438967,0.3630070880694285,5.0,146.859985
336,11.4394673266513,0.7348106048643921,11.269237158099942,0.14580189012731554,5.0,146.859985
337,11.473513360361572,0.5701789458164689,11.303283191810214,0.05374429090870403,5.0,146.859985
338,11.507559394071842,0.45186468121425694,11.337329225520484,-0.0007586109820018954,5.0,146.859985
339,11.541605427782114,0.33386689626392174,11.371375259230756,-0.0952330186018999,5.0,146.859985
340,11.575651461492386,0.1857541552210095,11.405421292941028,-0.2537419492566523,5.0,146.859985
341,11.609697495202658,0.009280535789070251,11.4394673266513,-0.44604278834033406,5.0,146.859985
342,11.64374352891293,-0.17774531477129357,11.473513360361572,-0.6226545430540905,5.0,146.859985
343,11.677789562623202,-0.3716129833948653,11.473513360361572,-0.6226545430540905,6.0,176.23198200000002
344,11.711835596333474,-0.5963195935200836,11.507559394071844,-0.7579012999852076,6.0,176.23198200000002
345,11.745881630043746,-0.88228810623874,11.541605427782116,-0.869808359642292,6.0,176.23198200000002
346,11.779927663754018,-1.2197770055657533,11.575651461492388,-1.0016886645681908,6.0,176.23198200000002
347,11.813973697464288,-1.5223357761933884,11.609697495202658,-1.175956376825202,6.0,176.23198200000002
348,11.84801973117456,-1.6391293824647917,11.64374352891293,-1.35142497308351,6.0,176.23198200000002
349,11.882065764884832,-1.4264233806526785,11.677789562623202,-1.4181356136574026,6.0,176.23198200000002
350,11.916111798595104,-0.8429744981820245,11.711835596333474,-1.2440217444522261,6.0,176.23198200000002
351,11.950157832305376,-0.006203933637401987,11.745881630043746,-0.7539143843657089,6.0,176.23198200000002
352,11.984203866015648,0.8377175063547891,11.779927663754018,0.00587239501251569,6.0,176.23198200000002
353,12.01824989972592,1.4233600179348693,11.81397369746429,0.863044618096288,6.0,176.23198200000002
354,12.052295933436191,1.59520930247634,11.848019731174562,1.5860729731803778,6.0,176.23198200000002
355,12.086341967146463,1.3812144866016587,11.882065764884834,1.986870175898263,6.0,176.23198200000002
356,12.120388000856734,0.9681417995395609,11.916111798595104,2.000231128458025,6.0,176.23198200000002
357,12.154434034567005,0.5944888620855544,11.950157832305376,1.6976861072929517,6.0,176.23198200000002
358,12.188480068277277,0.42364778335342057,11.984203866015648,1.2362938693259202,6.0,176.23198200000002
359,12.22252610198755,0.4686440489134617,12.01824989972592,0.7791056886025405,6.0,176.23198200000002
360,12.256572135697821,0.6070128427184794,12.052295933436191,0.4314906390905186,6.0,176.23198200000002
361,12.290618169408093,0.6703822941788933,12.086341967146463,0.21875266908672958,6.0,176.23198200000002
362,12.324664203118365,0.5506771862532096,12.120388000856735,0.10357651338075978,6.0,176.23198200000002
363,12.358710236828637,0.25955975243446733,12.154434034567007,0.02374068377801564,6.0,176.23198200000002
364,12.392756270538909,-0.08886897181762524,12.18848006827728,-0.07240756632566604,6.0,176.23198200000002
365,12.426802304249179,-0.3540585878703929,12.22252610198755,-0.20666052277090155,6.0,176.23198200000002
366,12.460848337959451,-0.4536584576060297,12.256572135697821,-0.3701131923283433,6.0,176.23198200000002
367,12.494894371669723,-0.40792242433294496,12.290618169408093,-0.5353889983740471,6.0,176.23198200000002
368,12.528940405379995,-0.32403608884907303,12.324664203118365,-0.6746526001409088,6.0,176.23198200000002
369,12.562986439090267,-0.33520734820263315,12.358710236828637,-0.7768056938182407,6.0,176.23198200000002
370,12.597032472800539,-0.5285073123479502,12.392756270538909,-0.8569625336161332,6.0,176.23198200000002
371,12.63107850651081,-0.8952599375326792,12.42680230424918,-0.9508056943960536,6.0,176.23198200000002
372,12.665124540221083,-1.3264049186470221,12.460848337959453,-1.0903828305042642,6.0,176.23198200000002
373,12.699170573931353,-1.6573574989830355,12.494894371669723,-1.269199439618451,6.0,176.23198200000002
374,12.733216607641625,-1.7433424918950242,12.528940405379995,-1.4180414914324821,6.0,176.23198200000002
375,12.767262641351897,-1.5262358947057704,12.562986439090267,-1.4163247240668275,6.0,176.23198200000002
376,12.801308675062169,-1.0551978060070963,12.597032472800539,-1.1470772288400652,6.0,176.23198200000002
377,12.83535470877244,-0.4520802827801038,12.63107850651081,-0.5723418448565555,6.0,176.23198200000002
378,12.869400742482712,0.15103753219722613,12.665124540221083,0.21801766601781938,6.0,176.23198200000002
379,12.903446776192984,0.6611692075194826,12.699170573931355,1.024136250906376,6.0,176.23198200000002
380,12.937492809903256,1.0378782436522092,12.733216607641626,1.620664954922521,6.0,176.23198200000002
381,12.971538843613528,1.2782307297366269,12.767262641351898,1.8618948507755708,6.0,176.23198200000002
382,13.005584877323798,1.3962146773852382,12.801308675062169,1.7452772764935267,6.0,176.23198200000002
383,13.03963091103407,1.4126971821695482,12.83535470877244,1.398382385847179,6.0,176.23198200000002
384,13.073676944744342,1.35425508826716,12.869400742482712,1.0030414512600252,6.0,176.23198200000002
385,13.107722978454614,1.2485768919989857,12.903446776192984,0.7046576231966991,6.0,176.23198200000002
386,13.141769012164886,1.1106376658338288,12.937492809903256,0.5551052169154228,6.0,176.23198200000002
387,13.175815045875158,0.930578026650237,12.971538843613528,0.5113818656944743,6.0,176.23198200000002
388,13.20986107958543,0.6815870075711592,13.0055848773238,0.47999444297855715,6.0,176.23198200000002
389,13.243907113295702,0.3519268534447504,13.039630911034072,0.3766945786989815,6.0,176.23198200000002
390,13.277953147005974,-0.02031133799741519,13.073676944744344,0.16960879278753418,6.0,176.23198200000002
391,13.311999180716244,-0.34361111942567724,13.107722978454614,-0.11224858647720101,6.0,176.23198200000002
392,13.346045214426516,-0.5170875372782896,13.141769012164886,-0.403263033065052,6.0,176.23198200000002
393,13.380091248136788,-0.5003311761771317,13.175815045875158,-0.6412865466177873,6.0,176.23198200000002
394,13.41413728184706,-0.35970379018752624,13.20986107958543,-0.8018042953064919,6.0,176.23198200000002
395,13.448183315557332,-0.2511498803064777,13.243907113295702,-0.9097165958253389,6.0,176.23198200000002
396,13.482229349267604,-0.3401183399560095,13.277953147005974,-1.0228266723703858,6.0,176.23198200000002
397,13.516275382977875,-0.7009895561931745,13.311999180716246,-1.1930918507732344,6.0,176.23198200000002
398,13.550321416688147,-1.2548287246915237,13.346045214426518,-1.422694486920009,6.0,176.23198200000002
399,13.58436745039842,-1.7873701185486497,13.38009124813679,-1.6388387457478857,6.0,176.23198200000002
400,13.61841348410869,-2.0473795753759036,13.41413728184706,-1.7082058622751222,6.0,176.23198200000002
401,13.652459517818961,-1.8776502321443176,13.448183315557332,-1.4947980282495308,6.0,176.23198200000002
402,13.686505551529233,-1.3030612239244128,13.482229349267604,-0.9379707392116615,6.0,176.23198200000002
403,13.720551585239505,-0.5176874315437874,13.516275382977875,-0.10704310453784965,6.0,176.23198200000002
404,13.754597618949777,0.22388713301889543,13.550321416688147,0.8063218042056942,6.0,176.23198200000002
405,13.788643652660049,0.7394998941469761,13.58436745039842,1.5629356937321448,6.0,176.23198200000002
406,13.822689686370321,0.9914521513664503,13.618413484108691,1.9803138198623564,6.0,176.23198200000002
407,13.856735720080593,1.0634554678161234,13.652459517818963,2.0082408747565057,6.0,176.23198200000002
408,13.890781753790863,1.0769781237473588,13.686505551529233,1.735727035592715,6.0,176.23198200000002
409,13.924827787501135,1.1127398242659963,13.686505551529233,1.735727035592715,7.0,205.603979
410,13.958873821211407,1.182765684713495,13.720551585239505,1.3319923663026207,7.0,205.603979
411,13.992919854921679,1.2531848801875056,13.754597618949777,0.9603725028876924,7.0,205.603979
412,14.02696588863195,1.284513531577168,13.788643652660049,0.7121370375436684,7.0,205.603979
413,14.061011922342223,1.2549892865608925,13.856735720080593,0.5244505783782504,6.0,176.23198200000002
414,14.095057956052495,1.1577096100096862,13.890781753790865,0.4436043345644853,6.0,176.23198200000002
415,14.129103989762767,0.9885470960053424,13.924827787501137,0.29436332973787627,6.0,176.23198200000002
416,14.163150023473039,0.7457269022086791,13.958873821211409,0.071312396837927,6.0,176.23198200000002
417,14.197196057183309,0.4426517056978321,13.992919854921679,-0.19258919854319478,6.0,176.23198200000002
418,14.23124209089358,0.11552213842784778,14.02696588863195,-0.4483989400891655,6.0,176.23198200000002
419,14.265288124603853,-0.19059566678182574,14.061011922342223,-0.6556666061918204,6.0,176.23198200000002
420,14.299334158314124,-0.45133840335033126,14.095057956052495,-0.7999846677608256,6.0,176.23198200000002
421,14.333380192024396,-0.683815297465658,14.129103989762767,-0.8996984959117648,6.0,176.23198200000002
422,14.367426225734668,-0.9376843266170958,14.163150023473039,-0.9999130708119518,6.0,176.23198200000002
423,14.40147225944494,-1.257137164505213,14.19719605718331,-1.1523561233627546,6.0,176.23198200000002
424,14.435518293155212,-1.6359909268336432,14.231242090893582,-1.3832684207312878,6.0,176.23198200000002
425,14.469564326865484,-1.995219727599128,14.265288124603854,-1.6604673174855387,6.0,176.23198200000002
426,14.503610360575754,-2.202241099119919,14.299334158314124,-1.8799724552921504,6.0,176.23198200000002
427,14.537656394286026,-2.1297567558279904,14.333380192024396,-1.8916770493411417,6.0,176.23198200000002
428,14.571702427996298,-1.7273218973594235,14.367426225734668,-1.5655084505657673,6.0,176.23198200000002
429,14.60574846170657,-1.0634815150198016,14.40147225944494,-0.8704904705617744,6.0,176.23198200000002
430,14.639794495416842,-0.3055452303125548,14.435518293155212,0.08061386402913531,6.0,176.23198200000002
431,14.673840529127114,0.35900082662923705,14.469564326865484,1.057932115496044,6.0,176.23198200000002
432,14.707886562837386,0.813177023961799,14.503610360575756,1.8080098770086284,6.0,176.23198200000002
433,14.741932596547658,1.0546491644844982,14.537656394286028,2.1649615347398776,6.0,176.23198200000002
434,14.77597863025793,1.1671006365892567,14.5717024279963,2.116200993218566,6.0,176.23198200000002
435,14.8100246639682,1.245068219082358,14.60574846170657,1.7886303310664329,6.0,176.23198200000002
436,14.844070697678472,1.3275739919689387,14.639794495416842,1.3706906365153155,6.0,176.23198200000002
437,14.878116731388744,1.38139264880779,14.673840529127114,1.0200902336850928,6.0,176.23198200000002
438,14.912162765099016,1.335427799912826,14.707886562837386,0.8061718141104262,6.0,176.23198200000002
439,14.946208798809288,1.136661907086364,14.741932596547658,0.707083609783465,6.0,176.23198200000002
440,14.98025483251956,0.7924197376601989,14.77597863025793,0.6487669791236964,6.0,176.23198200000002
441,15.014300866229831,0.37793759082451894,14.810024663968202,0.5554611681804915,6.0,176.23198200000002
442,15.048346899940103,0.008355157553242185,14.844070697678474,0.38509660413883706,6.0,176.23198200000002
443,15.082392933650373,-0.21003921520630695,14.878116731388744,0.1391192035576177,6.0,176.23198200000002
444,15.116438967360645,-0.22671259417574138,14.912162765099016,-0.14811930258430803,6.0,176.23198200000002
445,15.150485001070917,-0.070761118956382,14.946208798809288,-0.4287592851767314,6.0,176.23198200000002
446,15.18453103478119,0.1581957100862793,14.98025483251956,-0.6604625050866165,6.0,176.23198200000002
447,15.218577068491461,0.32593890037705725,15.014300866229831,-0.8212613819997546,6.0,176.23198200000002
448,15.252623102201733,0.30997057083049784,15.048346899940103,-0.9186839394384851,6.0,176.23198200000002
449,15.286669135912005,0.041527309861523386,15.082392933650375,-0.9898117883180254,6.0,176.23198200000002
450,15.320715169622277,-0.4644287130670625,15.116438967360647,-1.0871846013352553,6.0,176.23198200000002
451,15.354761203332549,-1.0983221736156636,15.150485001070919,-1.2491853942916242,6.0,176.23198200000002
452,15.388807237042819,-1.6758776992677875,15.18453103478119,-1.4642490364056078,6.0,176.23198200000002
453,15.422853270753091,-1.9953855529338427,15.218577068491461,-1.6501316238656423,6.0,176.23198200000002
454,15.456899304463363,-1.917380959826492,15.252623102201733,-1.6711053305910115,6.0,176.23198200000002
455,15.490945338173635,-1.4295004853557023,15.286669135912005,-1.3988351909306194,6.0,176.23198200000002
456,15.524991371883907,-0.6582316270085712,15.320715169622277,-0.7920801209374062,6.0,176.23198200000002
457,15.559037405594179,0.18446796691147926,15.354761203332549,0.05278319755198405,6.0,176.23198200000002
458,15.59308343930445,0.893568134830317,15.38880723704282,0.9211668808573682,6.0,176.23198200000002
459,15.627129473014723,1.3518880760999892,15.422853270753093,1.56986661218946,6.0,176.23198200000002
460,15.661175506724994,1.5564576333554943,15.456899304463365,1.8394981646234434,6.0,176.23198200000002
461,15.695221540435265,1.582434861125064,15.490945338173635,1.7244477804285618,6.0,176.23198200000002
462,15.729267574145537,1.5151619012912036,15.524991371883907,1.3616926068551558,6.0,176.23198200000002
463,15.763313607855808,1.396387504728054,15.559037405594179,0.9507542848244382,6.0,176.23198200000002
464,15.79735964156608,1.214898900176884,15.59308343930445,0.6551648823204284,6.0,176.23198200000002
465,15.831405675276352,0.9385418661500006,15.627129473014723,0.5383510136614058,6.0,176.23198200000002
466,15.865451708986624,0.5578866983087986,15.661175506724994,0.5589445505375076,6.0,176.23198200000002
467,15.899497742696896,0.10871642967873928,15.695221540435266,0.6151492449728266,6.0,176.23198200000002
468,15.933543776407168,-0.3399298414522051,15.729267574145538,0.6062250407127627,6.0,176.23198200000002
469,15.96758981011744,-0.7191306477535888,15.76331360785581,0.478933572667111,6.0,176.23198200000002
470,16.00163584382771,-0.9886313821335451,15.79735964156608,0.24180877843636722,6.0,176.23198200000002
471,16.035681877537982,-1.1444498469847277,15.831405675276352,-0.051578934595818846,6.0,176.23198200000002
472,16.069727911248254,-1.2102939525939955,15.865451708986624,-0.33679247984778216,6.0,176.23198200000002
473,16.103773944958526,-1.2244453443955265,15.899497742696896,-0.5725154343108495,6.0,176.23198200000002
474,16.137819978668798,-1.224140034613716,15.933543776407168,-0.7590180381669884,6.0,176.23198200000002
475,16.17186601237907,-1.2255744459875952,15.96758981011744,-0.9321614439346625,6.0,176.23198200000002
476,16.20591204608934,-1.2085313359832444,15.96758981011744,-0.9321614439346625,7.0,205.603979
477,16.239958079799614,-1.1225948014130356,16.00163584382771,-1.1338001468886199,7.0,205.603979
478,16.274004113509886,-0.9208107096659888,16.035681877537982,-1.371354528576867,7.0,205.603979
479,16.308050147220158,-0.602514647973388,16.069727911248254,-1.5889184642973015,7.0,205.603979
480,16.34209618093043,-0.2312617043675688,16.103773944958526,-1.6724749190480779,7.0,205.603979
481,16.3761422146407,0.09539751967966359,16.137819978668798,-1.4974758330696365,7.0,205.603979
482,16.410188248350973,0.3119110440041692,16.17186601237907,-1.0013372198862418,7.0,205.603979
483,16.44423428206124,0.43959424551753684,16.205912046089338,-0.24066640789545313,7.0,205.603979
484,16.478280315771514,0.5818963062304315,16.23995807979961,0.6076070824758222,7.0,205.603979
485,16.512326349481786,0.8519161894967499,16.274004113509882,1.3127599207382066,7.0,205.603979
486,16.546372383192057,1.2789471574226663,16.308050147220154,1.692638183756388,7.0,205.603979
487,16.58041841690233,1.7644411697037818,16.342096180930426,1.6940127260148055,7.0,205.603979
488,16.6144644506126,2.125709888829424,16.376142214640698,1.4056849770084727,7.0,205.603979
489,16.648510484322873,2.2011201823637783,16.41018824835097,1.0014546523760464,7.0,205.603979
490,16.682556518033145,1.9454504145574827,16.44423428206124,0.6507773280198595,7.0,205.603979
491,16.716602551743417,1.4529387230141546,16.478280315771514,0.4472669482050659,7.0,205.603979
492,16.75064858545369,0.8981152722341478,16.512326349481786,0.38659760593626574,7.0,205.603979
493,16.78469461916396,0.4385501405238079,17.397523225948852,0.30976256512898737,-18.0,-528.695946
494,16.818740652874233,0.1411440003934073,17.431569259659124,0.32765493863574335,-18.0,-528.695946
495,16.852786686584505,-0.031384465041008995,16.6144644506126,0.2719371787883758,7.0,205.603979
496,16.886832720294777,-0.1792530249442643,16.648510484322873,0.07462661892064601,7.0,205.603979
497,16.92087875400505,-0.40267983748163205,16.682556518033145,-0.17339065555658037,7.0,205.603979
498,16.95492478771532,-0.7513461090264205,16.716602551743417,-0.40901508441578366,7.0,205.603979
499,16.988970821425593,-1.2048712863200475,16.75064858545369,-0.583742020934669,7.0,205.603979
500,17.02301685513586,-1.685460225211777,16.784694619163957,-0.6894891662663543,7.0,205.603979
501,17.057062888846133,-2.0907584604218012,16.81874065287423,-0.7625774820149599,7.0,205.603979
502,17.091108922556405,-2.3290879218798937,16.8527866865845,-0.8618358356564129,7.0,205.603979
503,17.125154956266677,-2.343692110205304,16.886832720294773,-1.0282846605710196,7.0,205.603979
504,17.15920098997695,-2.123356253565557,16.920878754005045,-1.2452764322399592,7.0,205.603979
505,17.19324702368722,-1.7030702755863554,16.954924787715317,-1.423432190498632,7.0,205.603979
506,17.227293057397493,-1.1561584271028174,16.98897082142559,-1.4277147517325315,7.0,205.603979
507,17.261339091107764,-0.5764055490512451,17.02301685513586,-1.142894913279948,7.0,205.603979
508,17.295385124818036,-0.05263620564682863,17.057062888846133,-0.547146364167566,7.0,205.603979
509,17.32943115852831,0.3552700900271134,17.057062888846133,-0.547146364167566,8.0,234.975976
510,17.36347719223858,0.6294183239270178,17.091108922556405,0.25059413865410807,8.0,234.975976
511,17.397523225948852,0.7918098405259851,17.125154956266677,1.040190420112516,8.0,234.975976
512,17.431569259659124,0.8878422149197946,17.15920098997695,1.5987969494548024,8.0,234.975976
513,17.465615293369396,0.9602250846657483,17.19324702368722,1.791338409116776,8.0,234.975976
514,17.499661327079668,1.0251830472497612,17.227293057397493,1.6262400454819421,8.0,234.975976
515,17.53370736078994,1.067717134461097,17.261339091107764,1.2375449793682842,8.0,234.975976
516,17.567753394500212,1.0633795571568672,17.295385124818036,0.8094397405117766,8.0,234.975976
517,17.601799428210484,1.0115983735324865,17.32943115852831,0.4893827564990011,8.0,234.975976
518,17.635845461920752,0.951540705189473,17.363477192238577,0.334470165191596,8.0,234.975976
519,17.669891495631024,0.9435544148065912,17.39752322594885,0.3097625651289899,8.0,234.975976
520,17.703937529341296,1.027969624188077,17.43156925965912,0.32765493863574147,8.0,234.975976
521,17.737983563051568,1.1921399287022196,17.465615293369392,0.3008697349439059,8.0,234.975976
522,17.77202959676184,1.37023089217951,17.499661327079664,0.1826398359405303,8.0,234.975976
523,17.80607563047211,1.47506618004388,17.533707360789936,-0.01988632202764068,8.0,234.975976
524,17.840121664182384,1.4379270845030445,17.56775339450021,-0.2584468736544198,8.0,234.975976
525,17.874167697892656,1.2282199427319984,17.60179942821048,-0.472302510677744,8.0,234.975976
526,17.908213731602928,0.8433200019796543,17.635845461920752,-0.6190798937881966,8.0,234.975976
527,17.9422597653132,0.28662957132529243,17.669891495631024,-0.6955999553954122,8.0,234.975976
528,17.97630579902347,-0.43439723924964463,17.703937529341296,-0.740093416311927,8.0,234.975976
529,18.010351832733743,-1.2769141696726418,17.737983563051568,-0.8125212252189822,8.0,234.975976
530,18.044397866444015,-2.124328087832813,17.77202959676184,-0.957705032369986,8.0,234.975976
531,18.078443900154287,-2.789034718603243,17.80607563047211,-1.1661397314982995,8.0,234.975976
532,18.11248993386456,-3.079946593469871,17.840121664182384,-1.354946988210468,8.0,234.975976
533,18.14653596757483,-2.9027108752678017,17.874167697892656,-1.388594307563615,8.0,234.975976
534,18.180582001285103,-2.321290796858731,17.908213731602928,-1.140945179647056,8.0,234.975976
535,18.214628034995375,-1.5283852889068748,17.9422597653132,-0.5727453388536652,8.0,234.975976
536,18.248674068705643,-0.741322012000111,17.976305799023468,0.22062475876425902,8.0,234.975976
537,18.282720102415915,-0.09925064361478655,18.01035183273374,1.0286109783493544,8.0,234.975976
538,18.316766136126187,0.3689086680924691,18.04439786644401,1.612520492749395,8.0,234.975976
539,18.35081216983646,0.6998770307324566,18.078443900154284,1.8159410505140576,8.0,234.975976
540,18.38485820354673,0.9289264974537269,18.112489933864556,1.635346370743016,8.0,234.975976
541,18.418904237257003,1.060277222996082,18.146535967574827,1.2107812421488386,8.0,234.975976
542,18.452950270967275,1.0891958498830947,18.1805820012851,0.745946593889819,8.0,234.975976
543,18.486996304677547,1.0390433555716556,18.21462803499537,0.4073234849904982,8.0,234.975976
544,18.52104233838782,0.9662249164646115,18.248674068705643,0.25756095497021947,8.0,234.975976
545,18.55508837209809,0.9223017642175759,18.282720102415915,0.2510798003903342,8.0,234.975976
546,18.589134405808363,0.9087625479814662,18.316766136126187,0.2822327259767978,8.0,234.975976
547,18.623180439518634,0.870742255278241,18.35081216983646,0.2517581787581409,8.0,234.975976
548,18.657226473228906,0.7400292681880258,18.38485820354673,0.11555596599940364,8.0,234.975976
549,18.69127250693918,0.49055066483053417,18.418904237257003,-0.10402992908901831,8.0,234.975976
550,18.72531854064945,0.15812650968478684,18.452950270967275,-0.3426001582590753,8.0,234.975976
551,18.759364574359722,-0.18937481665503375,18.486996304677547,-0.5358353221116633,8.0,234.975976
552,18.793410608069994,-0.5004492100279809,18.52104233838782,-0.6561247640103477,8.0,234.975976
553,18.827456641780262,-0.7629334877185677,18.555088372098087,-0.7256039602922555,8.0,234.975976
554,18.861502675490534,-0.9851487166755791,19.440285248565154,-0.7898163025407994,-17.0,-499.323949
555,18.895548709200806,-1.1579040388367512,19.474331282275426,-0.9126414714858608,-17.0,-499.323949
556,18.92959474291108,-1.235376034756466,19.508377315985697,-1.106784453830198,-17.0,-499.323949
557,18.96364077662135,-1.1545627472566384,19.54242334969597,-1.3256769027384907,-17.0,-499.323949
558,18.997686810331622,-0.8801204290164826,19.57646938340624,-1.4550853296126933,-17.0,-499.323949
559,19.031732844041894,-0.44101505383493367,19.610515417116513,-1.357370222685394,-17.0,-499.323949
560,19.065778877752166,0.06925236180508672,18.759364574359722,-1.1097912048179535,9.0,264.347973
561,19.099824911462438,0.532217781181654,18.793410608069994,-0.602795716835016,9.0,264.347973
562,19.13387094517271,0.8598145657779164,18.827456641780266,0.12418006966411209,9.0,264.347973
563,19.16791697888298,1.0297219045011548,18.861502675490538,0.8879627891160446,9.0,264.347973
564,19.201963012593254,1.078515231240056,18.89554870920081,1.4713269725549751,9.0,264.347973
565,19.236009046303526,1.0617314178214219,18.929594742911082,1.721387844879492,9.0,264.347973
566,19.270055080013798,1.0144813114394333,18.963640776621354,1.617076889111359,9.0,264.347973
567,19.30410111372407,0.9417950213424264,18.997686810331626,1.268009756589866,9.0,264.347973
568,19.33814714743434,0.8380324855763586,19.91692972050896,0.7024392146454487,-17.0,-499.323949
569,19.372193181144613,0.7086293185730153,19.950975754219233,0.4721233343139965,-17.0,-499.323949
570,19.406239214854885,0.5705155423487634,19.985021787929504,0.3931278857124911,-17.0,-499.323949
571,19.440285248565154,0.4341694397411135,20.019067821639773,0.39877167586372536,-17.0,-499.323949
572,19.474331282275426,0.29082227374761827,19.20196301259325,0.23297160971324707,8.0,234.975976
573,19.508377315985697,0.12142747090309086,19.236009046303522,0.1064295847233293,8.0,234.975976
574,19.54242334969597,-0.08120516975428636,19.270055080013794,-0.09346127780222482,8.0,234.975976
575,19.57646938340624,-0.3009414377717464,19.304101113724066,-0.31786335140955974,8.0,234.975976
576,19.610515417116513,-0.510783229270009,19.338147147434338,-0.5106188909712734,8.0,234.975976
577,19.644561450826785,-0.6984960633082387,19.37219318114461,-0.640208200396152,8.0,234.975976
578,19.678607484537057,-0.8812508087528873,19.40623921485488,-0.7174129874291102,8.0,234.975976
579,19.71265351824733,-1.0931536913500888,19.440285248565154,-0.7898163025407994,8.0,234.975976
580,19.7466995519576,-1.351064546320719,19.474331282275426,-0.9126414714858608,8.0,234.975976
581,19.780745585667873,-1.6230049803805158,19.508377315985697,-1.106784453830198,8.0,234.975976
582,19.814791619378145,-1.825195410883405,19.54242334969597,-1.3256769027384907,8.0,234.975976
583,19.848837653088417,-1.8549597247488654,19.57646938340624,-1.4550853296126933,8.0,234.975976
584,19.88288368679869,-1.6414041459538038,19.610515417116513,-1.357370222685394,8.0,234.975976
585,19.91692972050896,-1.1839865190138108,19.644561450826785,-0.9459290898215486,8.0,234.975976
586,19.950975754219233,-0.5573832047569482,19.678607484537057,-0.2504891938718186,8.0,234.975976
587,19.985021787929504,0.11972356557455371,19.71265351824733,0.5705664436257134,8.0,234.975976
588,20.019067821639773,0.7353898821060363,19.746699551957597,1.288424096583769,8.0,234.975976
589,20.053113855350045,1.2267164004209927,19.78074558566787,1.7060913320627795,8.0,234.975976
590,20.087159889060317,1.5891241128644336,19.81479161937814,1.7472389818129175,8.0,234.975976
591,20.12120592277059,1.8487869147191842,19.848837653088413,1.4812348503893675,8.0,234.975976
592,20.15525195648086,2.019311152584738,19.882883686798685,1.0745479219259606,8.0,234.975976
593,20.189297990191132,2.0727442544060786,19.916929720508957,0.7024392146454874,8.0,234.975976
594,20.223344023901404,1.9439608762626794,19.95097575421923,0.47212333431402054,8.0,234.975976
595,20.257390057611676,1.5681672137604556,19.9850217879295,0.39312788571249935,8.0,234.975976
596,20.29143609132195,0.9334246208008489,20.019067821639773,0.39877167586372536,8.0,234.975976
597,20.32548212503222,0.11893397801815496,20.053113855350045,0.3965380962959581,8.0,234.975976
598,20.359528158742492,-0.7069843865576797,20.087159889060317,0.31715205422159193,8.0,234.975976
599,20.393574192452764,-1.3359036427797684,20.12120592277059,0.1412046249045603,8.0,234.975976
600,20.427620226163036,-1.5987379097324306,20.15525195648086,-0.10174896159550988,8.0,234.975976
601,20.461666259873308,-1.4436652143155213,20.189297990191132,-0.35407092600587925,8.0,234.975976
602,20.49571229358358,-0.9733994582247109,20.223344023901404,-0.5588431490992118,8.0,234.975976
603,20.52975832729385,-0.40996945584418854,20.257390057611676,-0.6858555530043041,8.0,234.975976
604,20.563804361004124,0.00882675460780186,20.29143609132195,-0.7463841247524996,8.0,234.975976
605,20.597850394714396,0.1456030153024243,20.32548212503222,-0.789895700967377,8.0,234.975976
606,20.631896428424664,0.01795357694419158,20.35952815874249,-0.8792561531798515,8.0,234.975976
607,20.665942462134936,-0.2401371664220668,20.39357419245276,-1.0497995700896814,8.0,234.975976
608,20.699988495845208,-0.47219894148567804,20.427620226163032,-1.2703360618082569,8.0,234.975976
609,20.73403452955548,-0.5770654049575462,20.461666259873304,-1.4324150835436749,8.0,234.975976
610,20.76808056326575,-0.5265598093804312,20.495712293583576,-1.3869891383330681,8.0,234.975976
611,20.802126596976024,-0.33591171687472055,20.529758327293848,-1.021739175376935,8.0,234.975976
612,20.836172630686296,-0.03302832537150351,20.56380436100412,-0.34029708786742485,8.0,234.975976
613,20.870218664396567,0.34263360490687933,20.597850394714392,0.5088914108877731,8.0,234.975976
614,20.90426469810684,0.7226992425660035,20.631896428424664,1.283399841209142,8.0,234.975976
615,20.93831073181711,1.0088381374817896,20.665942462134936,1.756692761193749,8.0,234.975976
616,20.972356765527383,1.106646521216131,20.699988495845208,1.824736937559607,8.0,234.975976
617,21.006402799237655,0.9767669398044402,20.73403452955548,1.5468934962124767,8.0,234.975976
618,21.040448832947927,0.6655469074415622,20.76808056326575,1.1008650601966077,8.0,234.975976
619,21.0744948666582,0.29022515805676385,20.802126596976024,0.684168769774703,8.0,234.975976
620,21.10854090036847,-0.014200834702203109,20.836172630686296,0.42132839731933597,8.0,234.975976
621,21.142586934078743,-0.15486154361652346,20.870218664396567,0.32384924958089994,8.0,234.975976
622,21.176632967789015,-0.1165249796545198,20.90426469810684,0.3136568033822757,8.0,234.975976
623,21.210679001499283,0.03935096348637864,20.938310731817108,0.28568098450645274,8.0,234.975976
624,21.244725035209555,0.2049461314972824,20.97235676552738,0.17005821265099702,8.0,234.975976
625,21.278771068919827,0.27001675139020964,21.00640279923765,-0.03754034329828479,8.0,234.975976
626,21.3128171026301,0.16313650205270552,21.040448832947924,-0.2867192325809808,8.0,234.975976
627,21.34686313634037,-0.1238627368227722,21.074494866658195,-0.5111712054161159,8.0,234.975976
628,21.380909170050643,-0.5372252014344243,21.108540900368467,-0.6706142200299954,8.0,234.975976
629,21.414955203760915,-0.9867021621871792,21.14258693407874,-0.7728416895298034,8.0,234.975976
630,21.449001237471187,-1.3809039928445352,21.17663296778901,-0.8645781774991621,8.0,234.975976
631,21.48304727118146,-1.6531192835080517,21.210679001499283,-0.9954731575836312,8.0,234.975976
632,21.51709330489173,-1.7655875382036559,21.244725035209555,-1.1737868870619035,8.0,234.975976
633,21.551139338602002,-1.6968402666640379,21.278771068919827,-1.3397613855009314,8.0,234.975976
634,21.585185372312274,-1.4304955485069761,21.3128171026301,-1.3779220306657252,8.0,234.975976
635,21.619231406022546,-0.9620801008426606,22.163967945386894,-1.0306994323020557,-16.0,-469.951952
636,21.65327743973282,-0.32218961485558595,22.198013979097166,-0.38459518324464215,-16.0,-469.951952
637,21.68732347344309,0.40536740184613557,22.232060012807437,0.3944689210092197,-16.0,-469.951952
638,21.721369507153362,1.0940425732049706,22.26610604651771,1.1122486203994886,-16.0,-469.951952
639,21.755415540863634,1.6174202278883516,22.30015208022798,1.5857127217405298,-16.0,-469.951952
640,21.789461574573906,1.9016725261928011,22.334198113938253,1.7224449310371621,-16.0,-469.951952
641,21.823507608284174,1.9535222850393796,22.36824414764852,1.5543008052292615,-16.0,-469.951952
642,21.857553641994446,1.8438025963809699,22.402290181358794,1.2093255125911428,-16.0,-469.951952
643,21.891599675704718,1.6568313083435555,22.436336215069066,0.8419659183041933,-16.0,-469.951952
644,21.92564570941499,1.440138163061231,22.470382248779337,0.5621886711714439,-16.0,-469.951952
645,21.959691743125262,1.1890176999469881,22.50442828248961,0.3989082838151724,-16.0,-469.951952
646,21.993737776835534,0.8745923594470426,22.53847431619988,0.30966644762298307,-16.0,-469.951952
647,22.027783810545806,0.4910458068319779,22.572520349910153,0.22306994133119,-16.0,-469.951952
648,22.061829844256078,0.08275067047600984,22.606566383620425,0.08626780259277879,-16.0,-469.951952
649,22.09587587796635,-0.2728998957566514,22.640612417330697,-0.10850225703460187,-16.0,-469.951952
650,22.12992191167662,-0.5174146866567968,22.67465845104097,-0.3296051333698094,-16.0,-469.951952
651,22.163967945386894,-0.6602108612985171,21.92564570941499,-0.6816856219474658,7.0,205.603979
652,22.198013979097166,-0.7836233657993203,21.959691743125262,-0.8856463504634414,7.0,205.603979
653,22.232060012807437,-0.9892625631495269,21.993737776835534,-1.0785167562930646,7.0,205.603979
654,22.26610604651771,-1.3148103712322954,22.027783810545806,-1.2754249918112168,7.0,205.603979
655,22.30015208022798,-1.6815813350096702,22.061829844256078,-1.4532249020090022,7.0,205.603979
656,22.334198113938253,-1.9219613845545498,22.09587587796635,-1.5358988920983532,7.0,205.603979
657,22.368244147648525,-1.8806155270036933,22.12992191167662,-1.4195971226499176,7.0,205.603979
658,22.402290181358794,-1.522451253755566,22.16396794538689,-1.0306994323020964,7.0,205.603979
659,22.436336215069066,-0.9662186210594412,22.198013979097162,-0.38459518324470954,7.0,205.603979
660,22.470382248779337,-0.4136597641852515,22.232060012807434,0.39446892100913844,7.0,205.603979
661,22.50442828248961,-0.022077233326245328,22.266106046517706,1.1122486203994137,7.0,205.603979
662,22.53847431619988,0.1895065091338583,22.300152080227978,1.5857127217404803,7.0,205.603979
663,22.572520349910153,0.3357501585856867,22.33419811393825,1.722444931037148,7.0,205.603979
664,22.606566383620425,0.5676042629804545,22.36824414764852,1.5543008052292615,7.0,205.603979
665,22.640612417330697,0.9511314767160015,22.402290181358794,1.2093255125911428,7.0,205.603979
666,22.67465845104097,1.4065398607599005,22.436336215069066,0.8419659183041933,7.0,205.603979
667,22.70870448475124,1.7497076109429777,22.470382248779337,0.5621886711714439,7.0,205.603979
668,22.742750518461513,1.8072621169612963,22.50442828248961,0.3989082838151724,7.0,205.603979
669,22.776796552171785,1.5258571908083591,23.321533091536132,0.3045800289221002,-16.0,-469.951952
670,22.810842585882057,1.0039155035006575,23.355579125246404,0.2535497175623425,-16.0,-469.951952
671,22.84488861959233,0.4306793554888498,23.389625158956676,0.17083841915686349,-16.0,-469.951952
672,22.8789346533026,-0.022113080412362755,23.423671192666948,0.017140397156870924,-16.0,-469.951952
673,22.912980687012872,-0.28650143542201134,23.45771722637722,-0.19295220209486172,-16.0,-469.951952
674,22.947026720723144,-0.4143098117230616,22.70870448475124,-0.5359698315778325,7.0,205.603979
675,22.981072754433416,-0.521035391703044,22.742750518461513,-0.7094803002621373,7.0,205.603979
676,23.015118788143685,-0.6970903268246786,22.77679655217178,-0.8668384869531663,7.0,205.603979
677,23.049164821853957,-0.940897248048686,22.810842585882053,-1.04066173314806,7.0,205.603979
678,23.08321085556423,-1.1526515324739615,22.844888619592325,-1.2399161440096218,7.0,205.603979
679,23.1172568892745,-1.191588254666054,22.878934653302597,-1.4163954533410914,7.0,205.603979
680,23.151302922984772,-0.9629450155576403,22.91298068701287,-1.4655262915104446,7.0,205.603979
681,23.185348956695044,-0.4833995425874718,22.94702672072314,-1.2719018758395428,7.0,205.603979
682,23.219394990405316,0.1146220608507565,22.981072754433413,-0.7802944771947847,7.0,205.603979
683,23.253441024115588,0.6442505776591536,23.049164821853957,0.7471795399939918,6.0,176.23198200000002
684,23.28748705782586,0.9559877583346504,23.45771722637722,-0.19295220209486172,-5.0,-146.859985
685,23.321533091536132,1.0055246316481103,23.49176326008749,-0.4117654417842655,-5.0,-146.859985
686,23.355579125246404,0.8589968868318735,23.525809293797764,-0.5968056766129394,-5.0,-146.859985
687,23.389625158956676,0.6387758408963894,23.559855327508036,-0.7405824665858559,-5.0,-146.859985
688,23.423671192666948,0.44981448212791997,23.593901361218307,-0.871895836472774,-5.0,-146.859985
689,23.45771722637722,0.332653048145231,23.253441024115588,0.6236340057748679,6.0,176.23198200000002
690,23.49176326008749,0.2644306771414867,23.28748705782586,0.4033951549517593,6.0,176.23198200000002
691,23.525809293797764,0.1956493402767411,23.321533091536132,0.3045800289221002,6.0,176.23198200000002
692,23.559855327508036,0.09085087547283215,23.355579125246404,0.2535497175623425,6.0,176.23198200000002
693,23.593901361218304,-0.054711978039539276,23.389625158956672,0.17083841915687212,6.0,176.23198200000002
694,23.627947394928576,-0.2279458506383159,23.798177563479936,-0.47298166307702794,-5.0,-146.859985
695,23.661993428638848,-0.4213593334506868,23.832223597190207,0.2570941968021928,-5.0,-146.859985
696,23.69603946234912,-0.6404532505820989,23.86626963090048,0.9661714089424962,-5.0,-146.859985
697,23.73008549605939,-0.8843983781088661,23.90031566461075,1.4494423168106125,-5.0,-146.859985
698,23.764131529769664,-1.1163811305096207,23.934361698321023,1.5876625929790138,-5.0,-146.859985
699,23.798177563479936,-1.255406668217339,23.968407732031295,1.3982656963051725,-5.0,-146.859985
700,23.832223597190207,-1.2092911094337202,23.627947394928576,-1.025937866002461,6.0,176.23198200000002
701,23.86626963090048,-0.9343325875963241,23.661993428638848,-1.2011230635440677,6.0,176.23198200000002
702,23.90031566461075,-0.4783622090450626,23.69603946234912,-1.3328676205534673,6.0,176.23198200000002
703,23.934361698321023,0.030692751236807,23.73008549605939,-1.30916891028994,6.0,176.23198200000002
704,23.968407732031295,0.4490958871536586,23.764131529769664,-1.0288787039116536,6.0,176.23198200000002
705,24.002453765741567,0.6920878524347734,23.798177563479936,-0.47298166307702794,6.0,176.23198200000002
706,24.03649979945184,0.7692577061477712,23.832223597190207,0.2570941968021928,6.0,176.23198200000002
707,24.07054583316211,0.7605183108935577,23.86626963090048,0.9661714089424962,6.0,176.23198200000002
708,24.104591866872383,0.7543236454407034,23.90031566461075,1.4494423168106125,6.0,176.23198200000002
709,24.138637900582655,0.7918916417634851,23.934361698321023,1.5876625929790138,6.0,176.23198200000002
710,24.172683934292927,0.850974919550571,23.968407732031295,1.3982656963051725,6.0,176.23198200000002
711,24.206729968003195,0.8719866677180086,24.002453765741564,1.0152192709399066,6.0,176.23198200000002
712,24.240776001713467,0.8025021291825257,24.036499799451835,0.6139924635638135,6.0,176.23198200000002
713,24.27482203542374,0.6302710684850596,24.10459186687238,0.19487672282073432,5.0,146.859985
714,24.30886806913401,0.38796624471324354,24.13863790058265,0.17011803668210473,5.0,146.859985
715,24.342914102844283,0.1311885897322812,24.172683934292923,0.1650453097376227,5.0,146.859985
716,24.376960136554555,-0.09558802377004448,24.206729968003195,0.10764077194330415,5.0,146.859985
717,24.411006170264827,-0.28465234956835955,24.240776001713467,-0.023893530171798332,5.0,146.859985
718,24.4450522039751,-0.464836913467916,24.27482203542374,-0.20319475392966893,5.0,146.859985
719,24.47909823768537,-0.6726668224241732,24.30886806913401,-0.38620454944574933,5.0,146.859985
720,24.513144271395642,-0.9129810753214985,24.342914102844283,-0.5466609948432228,5.0,146.859985
721,24.547190305105914,-1.1381395928267102,24.376960136554555,-0.692365467152915,5.0,146.859985
722,24.581236338816186,-1.2641011617053162,24.411006170264827,-0.8508844258151836,5.0,146.859985
723,24.61528237252646,-1.2154583225690982,24.4450522039751,-1.0331350512802608,5.0,146.859985
724,24.64932840623673,-0.9703160183715004,24.47909823768537,-1.1997277428412993,5.0,146.859985
725,24.683374439947002,-0.5762320548505148,24.513144271395642,-1.25779234885934,5.0,146.859985
726,24.717420473657274,-0.12885472402700202,24.547190305105914,-1.1003370814231461,5.0,146.859985
727,24.751466507367546,0.2718195461903034,24.581236338816186,-0.6719546361015767,5.0,146.859985
728,24.785512541077818,0.562473569330029,24.61528237252646,-0.021456767347109863,5.0,146.859985
729,24.819558574788086,0.7347874315518667,24.649328406236727,0.6970299388242867,5.0,146.859985
730,24.853604608498358,0.8247384507667773,24.683374439947,1.2835392356737656,5.0,146.859985
731,24.88765064220863,0.8816517729003982,24.71742047365727,1.5819577403463032,5.0,146.859985
732,24.921696675918902,0.9355284463778024,24.751466507367542,1.548943819533116,5.0,146.859985
733,24.955742709629174,0.9807147386577018,24.785512541077814,1.264205237182628,5.0,146.859985
734,24.989788743339446,0.9835584430906845,24.819558574788086,0.8805725431926233,5.0,146.859985
735,25.023834777049718,0.9071743702868242,24.853604608498358,0.5460364923823787,5.0,146.859985
736,25.05788081075999,0.7369327134624988,24.88765064220863,0.3406981598836034,5.0,146.859985
737,25.09192684447026,0.4919505663073432,24.921696675918902,0.25709657049865464,5.0,146.859985
738,25.125972878180534,0.21810279357649673,24.955742709629174,0.2256053415642861,5.0,146.859985
739,25.160018911890806,-0.031464644285560964,24.989788743339446,0.16425423238997647,5.0,146.859985
740,25.194064945601077,-0.21779228592649982,25.023834777049718,0.024581150782753514,5.0,146.859985
741,25.22811097931135,-0.33093812383462967,25.05788081075999,-0.1877647464880609,5.0,146.859985
742,25.26215701302162,-0.39417912178928166,25.09192684447026,-0.4236736577080024,5.0,146.859985
743,25.296203046731893,-0.45670697077597333,25.125972878180534,-0.6233290856660205,5.0,146.859985
744,25.330249080442165,-0.5751833652086243,25.160018911890806,-0.7526223366597283,5.0,146.859985
745,25.364295114152437,-0.7870332881731236,25.194064945601077,-0.8236837908411287,5.0,146.859985
746,25.398341147862705,-1.0843390522945335,25.228110979311346,-0.8870964381918147,5.0,146.859985
747,25.432387181572977,-1.4030871325101133,25.262157013021618,-0.9969012972200775,5.0,146.859985
748,25.46643321528325,-1.6400864347149449,25.29620304673189,-1.1651103040646125,5.0,146.859985
749,25.50047924899352,-1.6952854874366088,25.33024908044216,-1.3326367183700922,5.0,146.859985
750,25.534525282703793,-1.5187067354232113,25.364295114152434,-1.3802570599561814,5.0,146.859985
751,25.568571316414065,-1.134250922041859,25.398341147862705,-1.1835429859283306,5.0,146.859985
752,25.602617350124337,-0.625695351507419,25.432387181572977,-0.687480950256878,5.0,146.859985
753,25.63666338383461,-0.0952033717892933,25.46643321528325,0.04261749844030269,5.0,146.859985
754,25.67070941754488,0.37815001285600247,25.50047924899352,0.8303826235845404,5.0,146.859985
755,25.704755451255153,0.7568021340225652,25.534525282703793,1.4602724273225136,5.0,146.859985
756,25.738801484965425,1.0376896340054191,25.568571316414065,1.7743201751331301,5.0,146.859985
757,25.772847518675697,1.2349548742385044,25.602617350124337,1.7390335603626184,5.0,146.859985
758,25.80689355238597,1.3680337064945403,25.63666338383461,1.4471221489240862,5.0,146.859985
759,25.84093958609624,1.4579661648308333,25.67070941754488,1.0593962389948068,5.0,146.859985
760,25.874985619806512,1.5242307243551318,25.704755451255153,0.7247518925836668,5.0,146.859985
761,25.909031653516784,1.576567734051167,25.738801484965425,0.521356275832592,5.0,146.859985
762,25.943077687227056,1.605888476260564,25.772847518675697,0.44256386428206634,5.0,146.859985
763,25.97712372093733,1.58286064990341,25.80689355238597,0.4237124142005452,5.0,146.859985
764,26.011169754647597,1.4680815102484304,25.840939586096237,0.3874517926485411,5.0,146.859985
765,26.04521578835787,1.2302713088196855,25.87498561980651,0.2826491032974684,5.0,146.859985
766,26.07926182206814,0.8643055759739515,25.90903165351678,0.10187870978577418,5.0,146.859985
767,26.113307855778412,0.39947240566856573,25.943077687227053,-0.12376986407659082,5.0,146.859985
768,26.147353889488684,-0.10916365322685523,25.977123720937325,-0.3444644044179211,5.0,146.859985
769,26.181399923198956,-0.6045617906276173,26.011169754647597,-0.5157699498990133,5.0,146.859985
770,26.215445956909228,-1.0527083142696467,26.04521578835787,-0.6193042597059347,5.0,146.859985
771,26.2494919906195,-1.4496225894938342,26.07926182206814,-0.6741277724130628,5.0,146.859985
772,26.283538024329772,-1.8020970087303099,26.113307855778412,-0.733198619322523,5.0,146.859985
773,26.317584058040044,-2.0966154734839964,26.147353889488684,-0.8606356396830952,5.0,146.859985
774,26.351630091750316,-2.2848556809895326,26.181399923198956,-1.0927576278108009,5.0,146.859985
775,26.385676125460588,-2.3021386375570967,26.215445956909228,-1.3984617293539612,5.0,146.859985
776,26.41972215917086,-2.106506976928326,26.2494919906195,-1.6643863247453734,5.0,146.859985
777,26.45376819288113,-1.7086941106644815,26.283538024329772,-1.7261569245668613,5.0,146.859985
778,26.487814226591404,-1.1719677388225382,26.317584058040044,-1.443955926938216,5.0,146.859985
779,26.521860260301676,-0.5847020395073098,26.351630091750316,-0.788497765758361,5.0,146.859985
780,26.555906294011947,-0.026047656723540317,26.385676125460588,0.11494842871042277,5.0,146.859985
781,26.589952327722216,0.4553257571472441,26.419722159170856,1.0214740643208353,5.0,146.859985
782,26.623998361432488,0.8425184387665428,26.453768192881128,1.6712183597017622,5.0,146.859985
783,26.65804439514276,1.1377379934742378,26.4878142265914,1.9080326297135395,5.0,146.859985
784,26.69209042885303,1.3472023989644415,26.521860260301672,1.7445819554372235,5.0,146.859985
785,26.726136462563304,1.4735530794361011,26.555906294011944,1.3393747687072803,5.0,146.859985
786,26.760182496273575,1.5188031677898115,26.589952327722216,0.904841559832149,5.0,146.859985
787,26.794228529983847,1.4915178982211417,26.623998361432488,0.6026075961077669,5.0,146.859985
788,26.82827456369412,1.4081037537121595,26.65804439514276,0.48149176382639264,5.0,146.859985
789,26.86232059740439,1.2854345734999433,26.69209042885303,0.4821320770473154,5.0,146.859985
790,26.896366631114663,1.1325942960944815,26.726136462563304,0.49330668315876103,5.0,146.859985
791,26.930412664824935,0.9496110406711642,26.760182496273575,0.42153625056603533,5.0,146.859985
792,26.964458698535207,0.7314578655567489,26.794228529983847,0.23647582211673707,5.0,146.859985
793,26.99850473224548,0.4704099998137847,26.82827456369412,-0.025831326519585238,5.0,146.859985
794,27.03255076595575,0.15559107421560966,26.86232059740439,-0.2954321606552645,5.0,146.859985
795,27.066596799666023,-0.2235332101400963,26.896366631114663,-0.51391248081555,5.0,146.859985
796,27.100642833376295,-0.6638048920281883,26.930412664824935,-0.6671841942412985,5.0,146.859985
797,27.134688867086567,-1.1298753338365084,26.964458698535207,-0.7887393323750976,5.0,146.859985
798,27.16873490079684,-1.5458640794153018,26.99850473224548,-0.9315327239848648,5.0,146.859985
799,27.202780934507107,-1.8109348766698834,27.032550765955747,-1.1224820181447097,5.0,146.859985
800,27.23682696821738,-1.8369304430320994,27.06659679966602,-1.32489791748222,5.0,146.859985
801,27.27087300192765,-1.5890166773422456,27.10064283337629,-1.4349804645951307,5.0,146.859985
802,27.304919035637923,-1.1067266950538615,27.134688867086563,-1.3242009451588284,5.0,146.859985
803,27.338965069348195,-0.49516491677127145,27.168734900796835,-0.9126407834579437,5.0,146.859985
804,27.373011103058467,0.10732346074566541,27.202780934507107,-0.23331085578189353,5.0,146.859985
805,27.40705713676874,0.5703460492955195,27.23682696821738,0.5561728299008694,5.0,146.859985
806,27.44110317047901,0.8084796212412565,27.27087300192765,1.2313699284277784,5.0,146.859985
807,27.475149204189282,0.8058195805921986,27.304919035637923,1.6017053812470818,5.0,146.859985
808,27.509195237899554,0.6215012200527551,27.338965069348195,1.5978112805993854,5.0,146.859985
809,27.543241271609826,0.37004318790509244,27.373011103058467,1.2958744761509036,5.0,146.859985
810,27.577287305320098,0.17700220080940807,27.40705713676874,0.8681396715480304,5.0,146.859985
811,27.61133333903037,0.12536473895845418,27.44110317047901,0.4921562660083351,5.0,146.859985
812,27.645379372740642,0.2204305444839572,27.475149204189282,0.2709641696474217,5.0,146.859985
813,27.679425406450914,0.3954805108357143,27.509195237899554,0.2033107071593175,5.0,146.859985
814,27.713471440161186,0.5555030702652604,27.543241271609826,0.2103373991086431,5.0,146.859985
815,27.747517473871458,0.629895294050294,27.577287305320098,0.19483537234032783,5.0,146.859985
816,27.781563507581726,0.5998046643787194,27.611333339030367,0.09676780588985812,5.0,146.859985
817,27.815609541291998,0.4861381215824271,27.64537937274064,-0.08289220509832886,5.0,146.859985
818,27.84965557500227,0.313853212108373,27.67942540645091,-0.29689669697078097,5.0,146.859985
819,27.883701608712542,0.08497064741949169,27.713471440161182,-0.4906305090873412,5.0,146.859985
820,27.917747642422814,-0.2157252486778242,27.747517473871454,-0.6395142553957496,5.0,146.859985
821,27.951793676133086,-0.5863772421597812,27.781563507581726,-0.762009721342421,5.0,146.859985
822,27.985839709843358,-0.9748424276084916,27.815609541291998,-0.899782710534062,5.0,146.859985
823,28.01988574355363,-1.2784482763047242,27.84965557500227,-1.0758043436665736,5.0,146.859985
824,28.0539317772639,-1.3847829941896277,27.883701608712542,-1.256179886532413,5.0,146.859985
825,28.087977810974174,-1.2294066561356938,27.917747642422814,-1.3437646073830751,5.0,146.859985
826,28.122023844684445,-0.8313312145680534,27.951793676133086,-1.2169091770570442,5.0,146.859985
827,28.156069878394717,-0.2827198231181681,28.01988574355363,-0.12322958152071813,4.0,117.487988
828,28.19011591210499,0.2969690643593678,28.0539317772639,0.6597661381053561,4.0,117.487988
829,28.22416194581526,0.8084520022093016,28.087977810974174,1.3321193762640267,4.0,117.487988
830,28.258207979525533,1.1923494332303277,28.122023844684445,1.7077342052255795,4.0,117.487988
831,28.292254013235805,1.418539413214641,28.156069878394717,1.716074755367216,4.0,117.487988
832,28.326300046946077,1.46772018440181,28.156069878394717,1.716074755367216,5.0,146.859985
833,28.36034608065635,1.330380685787672,28.19011591210499,1.4261106006609199,5.0,146.859985
834,28.394392114366617,1.027297987125288,28.224161945815258,0.9997240556483993,5.0,146.859985
835,28.42843814807689,0.630064787103538,28.2922540132358,0.3458513172966281,4.0,117.487988
836,28.46248418178716,0.2533244920060737,28.326300046946074,0.22465199282230003,4.0,117.487988
837,28.496530215497433,0.010299061398293508,28.360346080656345,0.176904348862927,4.0,117.487988
838,28.530576249207705,-0.04580860520274889,28.394392114366617,0.12071072307740807,4.0,117.487988
839,28.564622282917977,0.04330379155974466,28.42843814807689,0.0062971264976702575,4.0,117.487988
840,28.59866831662825,0.1536281640516933,28.46248418178716,-0.1666871303400409,4.0,117.487988
841,28.63271435033852,0.13182673107774454,28.496530215497433,-0.36669630787366475,4.0,117.487988
842,28.666760384048793,-0.13932514349827171,28.530576249207705,-0.5647241368896372,4.0,117.487988
843,28.700806417759065,-0.6886231763140198,28.564622282917977,-0.7583810618816714,4.0,117.487988
844,28.734852451469337,-1.4304524250285116,28.59866831662825,-0.9662410512550429,4.0,117.487988
845,28.76889848517961,-2.174060128229221,28.63271435033852,-1.194333190818555,4.0,117.487988
846,28.80294451888988,-2.6768547688126323,28.666760384048793,-1.3990571487504975,4.0,117.487988
847,28.836990552600152,-2.735951939472935,28.700806417759065,-1.4791946549627155,4.0,117.487988
848,28.871036586310424,-2.282008197695035,28.734852451469337,-1.3151392041095662,4.0,117.487988
849,28.905082620020696,-1.4210582864453407,28.76889848517961,-0.8415150674650416,4.0,117.487988
850,28.939128653730968,-0.3915090227000149,28.80294451888988,-0.11010426993688714,4.0,117.487988
851,28.973174687441237,0.5434949598006183,28.83699055260015,0.7034575648288782,4.0,117.487988
852,29.00722072115151,1.205824186534712,28.87103658631042,1.36524819774649,4.0,117.487988
853,29.04126675486178,1.5546752332932827,28.905082620020693,1.6897483287190331,4.0,117.487988
854,29.075312788572052,1.6638025298377315,28.939128653730965,1.626149225791236,4.0,117.487988
855,29.109358822282324,1.6515463482289316,28.973174687441237,1.2732854173811756,4.0,117.487988
856,29.143404855992596,1.6109503724028205,29.00722072115151,0.8173346549437567,4.0,117.487988
857,29.177450889702868,1.5753451612080962,29.04126675486178,0.433647434737956,4.0,117.487988
858,29.21149692341314,1.5260121241304718,29.075312788572052,0.21091255608175907,4.0,117.487988
859,29.245542957123412,1.423530400131999,29.109358822282324,0.1344164464478991,4.0,117.487988
860,29.279588990833684,1.236736051727873,29.143404855992596,0.1246248109373408,4.0,117.487988
861,29.313635024543956,0.9531256041660358,29.177450889702868,0.09635492891143443,4.0,117.487988
862,29.347681058254228,0.5724225892694754,29.21149692341314,6.977011283613134e-05,4.0,117.487988
863,29.3817270919645,0.09866613069354303,29.245542957123412,-0.17221275168915465,4.0,117.487988
864,29.41577312567477,-0.45389763731132865,29.279588990833684,-0.4059673269616156,4.0,117.487988
865,29.449819159385044,-1.0407281006944238,29.313635024543956,-0.6825182045817952,4.0,117.487988
866,29.483865193095316,-1.5710299633890155,29.347681058254228,-0.9775878707648626,4.0,117.487988
867,29.517911226805587,-1.9194379942064514,29.3817270919645,-1.242812879326603,4.0,117.487988
868,29.55195726051586,-1.9718196833827515,29.41577312567477,-1.393204645317614,4.0,117.487988
869,29.586003294226128,-1.6834203068516203,29.44981915938504,-1.3252697277918024,4.0,117.487988
870,29.6200493279364,-1.1117857014784889,29.483865193095312,-0.9692049381009307,4.0,117.487988
871,29.65409536164667,-0.3990148419555699,29.517911226805584,-0.34772173518877625,4.0,117.487988
872,29.688141395356944,0.2891191742057277,29.551957260515856,0.40173459947035406,4.0,117.487988
873,29.722187429067215,0.8302696481662943,29.586003294226128,1.068325259450584,4.0,117.487988
874,29.756233462777487,1.1787478657792212,29.6200493279364,1.4586281781038373,4.0,117.487988
875,29.79027949648776,1.3501127891888645,29.65409536164667,1.4864389562727713,4.0,117.487988
876,29.82432553019803,1.376429114207908,29.688141395356944,1.2080336712935502,4.0,117.487988
877,29.858371563908303,1.2692003621457626,29.722187429067215,0.7833306618961743,4.0,117.487988
878,29.892417597618575,1.0172988972707686,29.756233462777487,0.38953713659233447,4.0,117.487988
879,29.926463631328847,0.6189652149757761,29.79027949648776,0.13951369298880165,4.0,117.487988
880,29.96050966503912,0.11962075831275003,29.82432553019803,0.04714184559983282,4.0,117.487988
881,29.99455569874939,-0.38079542237595987,29.858371563908303,0.047642201033178525,4.0,117.487988
882,30.028601732459663,-0.7676023266917767,29.892417597618575,0.04799951115347692,4.0,117.487988
883,30.062647766169935,-0.9772552306857849,29.926463631328847,-0.027497771090231986,4.0,117.487988
884,30.096693799880207,-1.0402059509474468,29.96050966503912,-0.21649228751222363,4.0,117.487988
885,30.13073983359048,-1.0599991829907929,29.99455569874939,-0.5180215557993311,4.0,117.487988
886,30.164785867300747,-1.1335099317559723,30.02860173245966,-0.8950263044441273,4.0,117.487988
887,30.19883190101102,-1.2674246704077115,30.06264776616993,-1.2710535373648713,4.0,117.487988
888,30.23287793472129,-1.357582749005044,30.096693799880203,-1.5313566691123617,4.0,117.487988
889,30.266923968431563,-1.2546071055779706,30.845706541506182,-1.2456958540843641,-17.0,-499.323949
890,30.300970002141835,-0.8719702583011363,30.164785867300747,-1.231329830280714,4.0,117.487988
891,30.335016035852107,-0.2570061709392658,30.19883190101102,-0.59397471676895,4.0,117.487988
892,30.36906206956238,0.4269236117149361,30.23287793472129,0.22880176465989926,4.0,117.487988
893,30.40310810327265,0.9911482864434542,30.266923968431563,1.0158095989294993,4.0,117.487988
894,30.437154136982922,1.318737346602208,30.300970002141835,1.5515203466375145,4.0,117.487988
895,30.471200170693194,1.405944356642339,30.335016035852107,1.7200876096407989,4.0,117.487988
896,30.505246204403466,1.3335914955025334,30.36906206956238,1.547565149106975,4.0,117.487988
897,30.539292238113738,1.200740395224266,30.40310810327265,1.1709003894785461,4.0,117.487988
898,30.57333827182401,1.067476621039969,30.437154136982922,0.7582569277546971,4.0,117.487988
899,30.607384305534282,0.9362227566096809,30.471200170693194,0.43033912109535677,4.0,117.487988
900,30.641430339244554,0.771347249851058,30.505246204403466,0.22279560738286097,4.0,117.487988
901,30.675476372954826,0.5351168348215323,30.539292238113738,0.09808801974043872,4.0,117.487988
902,30.709522406665098,0.21538498636060374,30.57333827182401,-0.013907121471085433,4.0,117.487988
903,30.74356844037537,-0.16598617848756822,30.607384305534282,-0.17612847361549225,4.0,117.487988
904,30.777614474085638,-0.5594328481283566,30.64143033924455,-0.42275335150875437,4.0,117.487988
905,30.81166050779591,-0.8992414682821109,30.675476372954822,-0.7536303664238091,4.0,117.487988
906,30.845706541506182,-1.116468711182379,30.709522406665094,-1.1324602812393836,4.0,117.487988
907,30.879752575216454,-1.1557321937525284,30.743568440375366,-1.4830071554943258,4.0,117.487988
908,30.913798608926726,-0.9969751083585465,30.777614474085638,-1.6926814745981087,4.0,117.487988
909,30.947844642636998,-0.6748851808479254,30.81166050779591,-1.6395079217417245,4.0,117.487988
910,30.98189067634727,-0.2814534877244646,30.845706541506182,-1.2456958540843641,4.0,117.487988
911,31.01593671005754,0.06028555410918881,30.879752575216454,-0.5352852437576874,4.0,117.487988
912,31.049982743767814,0.2476753718986933,31.220212912319173,0.14685883867938776,-5.0,-146.859985
913,31.084028777478085,0.25018386908670326,31.254258946029445,0.04878032828416993,-5.0,-146.859985
914,31.118074811188357,0.12800414869078522,31.288304979739717,-0.1057530779140014,-5.0,-146.859985
915,31.15212084489863,0.00043139855855647526,31.32235101344999,-0.3178636610221652,-5.0,-146.859985
916,31.1861668786089,-0.02075643265970483,31.049982743767814,1.6007074654939777,4.0,117.487988
917,31.220212912319173,0.10684943591151111,31.084028777478085,1.1754706840052764,4.0,117.487988
918,31.254258946029445,0.33740110428152176,31.118074811188357,0.7386749639867044,4.0,117.487988
919,31.288304979739717,0.5706310199109408,31.15212084489863,0.419204420605588,4.0,117.487988
920,31.32235101344999,0.711855743877372,31.1861668786089,0.24192254385954412,4.0,117.487988
921,31.356397047160257,0.7158534459312281,31.22021291231917,0.1468588386793977,4.0,117.487988
922,31.39044308087053,0.5905167229184171,31.25425894602944,0.04878032828418015,4.0,117.487988
923,31.4244891145808,0.37075830966104956,32.00327168765542,0.2671225483323702,-17.0,-499.323949
924,31.458535148291073,0.09243002279988322,32.037317721365696,0.11666531648097035,-17.0,-499.323949
925,31.492581182001345,-0.21376964616521982,32.071363755075964,-0.12002056751343797,-17.0,-499.323949
926,31.526627215711617,-0.5127846365856088,31.39044308087053,-0.7983154431272032,4.0,117.487988
927,31.56067324942189,-0.7589983035941869,31.4244891145808,-1.0428581248046107,4.0,117.487988
928,31.59471928313216,-0.9057187703476861,31.458535148291073,-1.3018195332274003,4.0,117.487988
929,31.628765316842433,-0.9245701211584316,31.492581182001345,-1.5558978008100726,4.0,117.487988
930,31.662811350552705,-0.8184730825485198,31.526627215711617,-1.7241965953033864,4.0,117.487988
931,31.696857384262977,-0.6185549148174635,31.56067324942189,-1.6771887362072526,4.0,117.487988
932,31.73090341797325,-0.36969215474392236,31.93517962023488,0.41018141553048215,-6.0,-176.23198200000002
933,31.76494945168352,-0.11569001797419526,31.969225653945152,0.33932368642801386,-6.0,-176.23198200000002
934,31.798995485393792,0.11008186988353423,32.00327168765542,0.2671225483323702,-6.0,-176.23198200000002
935,31.833041519104064,0.28941539804845445,32.00327168765542,0.2671225483323702,-5.0,-146.859985
936,31.867087552814336,0.4198948181541502,32.037317721365696,0.11666531648097035,-5.0,-146.859985
937,31.901133586524608,0.5090462469439461,31.76494945168352,2.0825579396387877,4.0,117.487988
938,31.93517962023488,0.5633459306250529,31.798995485393792,1.8690460757856526,4.0,117.487988
939,31.96922565394515,0.5814790198904943,31.83304151910406,1.4147000697620564,4.0,117.487988
940,32.00327168765542,0.5601775775307418,31.867087552814333,0.9349211790018475,4.0,117.487988
941,32.037317721365696,0.507259456733798,31.901133586524608,0.5868328350561295,4.0,117.487988
942,32.071363755075964,0.4458986924545497,31.901133586524605,0.5868328350561658,5.0,146.859985
943,32.10540978878624,0.4017158546213472,31.93517962023488,0.41018141553048215,5.0,146.859985
944,32.13945582249651,0.3827461921022881,31.96922565394515,0.3393236864280214,5.0,146.859985
945,32.173501856206784,0.37064497160134763,32.00327168765543,0.2671225483323388,5.0,146.859985
946,32.20754788991705,0.3307682576074122,32.037317721365696,0.11666531648097035,5.0,146.859985
947,32.24159392362733,0.23157230926767822,32.07136375507597,-0.1200205675134948,5.0,146.859985
948,32.275639957337596,0.05791138016587465,32.10540978878624,-0.3923171274474921,5.0,146.859985
949,32.309685991047864,-0.1877220509928073,32.13945582249651,-0.6365615146028655,5.0,146.859985
950,32.34373202475814,-0.4889468001484273,32.173501856206784,-0.8239227429516176,5.0,146.859985
951,32.37777805846841,-0.8147208953501496,32.20754788991705,-0.9783636222897005,5.0,146.859985
952,32.41182409217868,-1.114664749380935,32.24159392362733,-1.1514292120951048,5.0,146.859985
953,32.44587012588895,-1.321512848986967,32.275639957337596,-1.3681001563263273,5.0,146.859985
954,32.47991615959923,-1.3692104170295196,32.30968599104787,-1.5792954300383442,5.0,146.859985
955,32.513962193309496,-1.2206338068427744,32.34373202475814,-1.6584348828918496,5.0,146.859985
956,32.54800822701977,-0.8872935973157365,32.377778058468415,-1.4569046131442625,5.0,146.859985
957,32.58205426073004,-0.4277962906124407,32.41182409217868,-0.8954927185982133,5.0,146.859985
958,32.616100294440315,0.07191313877642508,32.44587012588896,-0.03820275296698354,5.0,146.859985
959,32.65014632815058,0.5233062810140319,32.47991615959923,0.9046590948171715,5.0,146.859985
960,32.68419236186086,0.8564640493299878,32.5139621933095,1.6587142771634569,5.0,146.859985
961,32.71823839557113,1.0368683984838325,32.54800822701977,2.012687599461644,5.0,146.859985
962,32.7522844292814,1.07446829284352,32.58205426073005,1.9173693067355213,5.0,146.859985
963,32.78633046299167,1.0154944908973818,32.92251459783276,-0.5091258014954171,-4.0,-117.487988
964,32.82037649670195,0.9140490640978903,32.65014632815059,0.9781700661414802,5.0,146.859985
965,32.854422530412215,0.7994055744569988,32.68419236186086,0.5581049500179868,5.0,146.859985
966,32.88846856412248,0.6646521508349129,32.71823839557113,0.3288889855847006,5.0,146.859985
967,32.92251459783276,0.48726427788537396,32.7522844292814,0.25477483734851947,5.0,146.859985
968,32.95656063154303,0.2650427693496687,32.78633046299167,0.22708279560477285,5.0,146.859985
969,32.9906066652533,0.03744915417886938,32.82037649670195,0.1445379139621055,5.0,146.859985
970,33.02465269896357,-0.12762135642144176,32.854422530412215,-0.03042558807028265,5.0,146.859985
971,33.05869873267385,-0.17820236251437704,32.88846856412249,-0.2675553490029251,5.0,146.859985
972,33.092744766384115,-0.12688176931574996,32.92251459783276,-0.5091258014954171,5.0,146.859985
973,33.12679080009439,-0.06495694743746644,32.956560631543034,-0.720201908764795,5.0,146.859985
974,33.16083683380466,-0.11695491545552084,32.9906066652533,-0.911215533538875,5.0,146.859985
975,33.194882867514934,-0.35265362938773304,33.02465269896358,-1.11614534943648,5.0,146.859985
976,33.2289289012252,-0.7177658118887787,33.05869873267385,-1.3414309541485339,5.0,146.859985
977,33.26297493493548,-1.045706195025437,33.09274476638412,-1.5242098474812595,5.0,146.859985
978,33.29702096864575,-1.1565315341059255,33.12679080009439,-1.537774869133939,5.0,146.859985
979,33.33106700235602,-0.9769137994336109,33.160836833804666,-1.2542956531611784,5.0,146.859985
980,33.36511303606629,-0.5912709233931296,33.194882867514934,-0.6340866092281475,5.0,146.859985
981,33.399159069776566,-0.1838869233413333,33.22892890122521,0.2162445147610243,5.0,146.859985
982,33.433205103486834,0.08448896066575837,33.29702096864575,1.651943394009565,4.0,117.487988
983,33.4672511371971,0.17324085820758803,33.331067002356015,1.8198317110219404,4.0,117.487988
984,33.50129717090738,0.1639738255214769,33.36511303606629,1.5831333049186962,4.0,117.487988
985,33.53534320461765,0.1760934957580492,33.39915906977656,1.1112947384359195,4.0,117.487988
986,33.56938923832792,0.268622129205223,33.399159069776566,1.111294738435821,5.0,146.859985
987,33.60343527203819,0.4044006801562237,33.433205103486834,0.6288581332719339,5.0,146.859985
988,33.637481305748466,0.49607602722330013,33.46725113719711,0.3008200593251676,5.0,146.859985
989,33.671527339458734,0.4868587727019245,33.50129717090738,0.16900558147436617,5.0,146.859985
990,33.70557337316901,0.3973509083568806,33.535343204617654,0.16542047418348368,5.0,146.859985
991,33.73961940687928,0.3039227530475442,33.56938923832792,0.17769724948466153,5.0,146.859985
992,33.773665440589554,0.2704217564302233,33.6034352720382,0.11612980711901036,5.0,146.859985
993,33.80771147429982,0.2899663616144829,33.637481305748466,-0.05569968885422003,5.0,146.859985
994,33.8417575080101,0.28433049530815124,33.67152733945874,-0.3297190363986506,5.0,146.859985
995,33.875803541720366,0.16351543016969142,33.70557337316901,-0.6760420038032215,5.0,146.859985
996,33.90984957543064,-0.0984097635704717,33.739619406879285,-1.0516751343085793,5.0,146.859985
997,33.94389560914091,-0.42794713942982776,33.773665440589554,-1.3894660389888651,5.0,146.859985
998,33.977941642851185,-0.684695494341176,33.80771147429983,-1.5877395971907196,5.0,146.859985
999,34.01198767656145,-0.7412118137297561,33.8417575080101,-1.5284697037924597,5.0,146.859985
1000,34.04603371027172,-0.5576950164034242,33.875803541720366,-1.1317528508910077,5.0,146.859985
1001,34.080079743982,-0.20381112350049319,33.90984957543064,-0.4202914154611071,5.0,146.859985
1002,34.114125777692266,0.18331276061063626,33.97794164285118,1.2453784529032756,4.0,117.487988
1003,34.14817181140254,0.4740950566487718,34.01198767656145,1.7257514558070655,4.0,117.487988
1004,34.18221784511281,0.606156152584444,34.04603371027172,1.777170124548814,4.0,117.487988
1005,34.216263878823085,0.59628587745039,34.080079743982,1.4467755204378658,4.0,117.487988
1006,34.25030991253335,0.5065595337811399,34.114125777692266,0.9121529577512998,4.0,117.487988
1007,34.28435594624363,0.3944323769087525,34.14817181140254,0.38861414708406833,4.0,117.487988
1008,34.3184019799539,0.2815824849858851,34.18221784511281,0.031636264737086965,4.0,117.487988
1009,34.35244801366417,0.15685763189528465,34.216263878823085,-0.11640461076889888,4.0,117.487988
1010,34.38649404737444,0.0010532479052594932,34.25030991253335,-0.11873171053712163,4.0,117.487988
1011,34.42054008108472,-0.19142443224069564,34.28435594624363,-0.09396216215708561,4.0,117.487988
1012,34.454586114794985,-0.4078736325622079,34.3184019799539,-0.1561886149034352,4.0,117.487988
1013,34.48863214850526,-0.6234778822275527,34.35244801366417,-0.3702751885115123,4.0,117.487988
1014,34.52267818221553,-0.8052062777704434,34.38649404737444,-0.7297028868636347,4.0,117.487988
1015,34.556724215925804,-0.9110701939677788,34.42054008108472,-1.1538088944001665,4.0,117.487988
1016,34.59077024963607,-0.8950600468728371,34.454586114794985,-1.5033332903038317,4.0,117.487988
1017,34.62481628334635,-0.7256257882683742,34.48863214850526,-1.6186337038593632,4.0,117.487988
1018,34.65886231705662,-0.4095251339729716,35.16955282271069,-1.4622496271540077,-15.0,-440.579955
1019,34.692908350766885,-0.001437464397078737,35.20359885642096,-0.9494618381847888,-15.0,-440.579955
1020,34.72695438447716,0.4127144811323164,35.237644890131236,-0.1427571738791762,-15.0,-440.579955
1021,34.76100041818743,0.7500609785088581,35.271690923841504,0.7455998277979582,-15.0,-440.579955
1022,34.795046451897704,0.960314554769264,35.30573695755178,1.453946423047596,-15.0,-440.579955
1023,34.82909248560797,1.0341070510032784,34.692908350766885,1.8066734514992127,4.0,117.487988
1024,34.86313851931825,0.9914135847504006,34.72695438447716,1.6149174445563124,4.0,117.487988
1025,34.89718455302852,0.8632314901598209,34.76100041818743,1.1425998042049275,4.0,117.487988
1026,34.93123058673879,0.6782009809392887,34.795046451897704,0.5988727051300018,4.0,117.487988
1027,34.96527662044906,0.4575294446968794,34.82909248560797,0.16680328997807745,4.0,117.487988
1028,34.999322654159336,0.2156072167605783,34.86313851931825,-0.06687341342984197,4.0,117.487988
1029,35.033368687869604,-0.03741245074744583,34.89718455302852,-0.1260908403959936,4.0,117.487988
1030,35.06741472157988,-0.2936973880333408,35.578105227233955,-0.14226382343049768,-15.0,-440.579955
1031,35.10146075529015,-0.5475766701252125,35.61215126094422,-0.1425195032207627,-15.0,-440.579955
1032,35.135506789000424,-0.795216746212697,35.6461972946545,-0.25371463454664245,-15.0,-440.579955
1033,35.16955282271069,-1.0288859267074821,35.68024332836477,-0.5106559068755386,-15.0,-440.579955
1034,35.20359885642097,-1.223900854908417,35.71428936207504,-0.8732668009857443,-15.0,-440.579955
1035,35.237644890131236,-1.328713580746683,35.10146075529015,-1.4002519781057379,4.0,117.487988
1036,35.271690923841504,-1.2760244700718435,35.13550678900042,-1.59542652077038,4.0,117.487988
1037,35.30573695755178,-1.019733635261268,35.16955282271069,-1.4622496271540077,4.0,117.487988
1038,35.33978299126205,-0.5769619308378281,35.20359885642096,-0.9494618381847888,4.0,117.487988
1039,35.37382902497232,-0.04180066410133216,35.237644890131236,-0.1427571738791762,4.0,117.487988
1040,35.40787505868259,0.4477483340231302,35.271690923841504,0.7455998277979582,4.0,117.487988
1041,35.44192109239287,0.7755724615967109,35.30573695755178,1.453946423047596,4.0,117.487988
1042,35.475967126103136,0.9056641038251817,35.33978299126205,1.782155024724207,4.0,117.487988
1043,35.51001315981341,0.8939866993145903,35.37382902497232,1.67714117959222,4.0,117.487988
1044,35.54405919352368,0.8459434765864058,35.40787505868259,1.2458972259852397,4.0,117.487988
1045,35.578105227233955,0.8480314087163994,35.44192109239287,0.692177071214482,4.0,117.487988
1046,35.61215126094422,0.9167869604084548,35.475967126103136,0.21638473485908408,4.0,117.487988
1047,35.6461972946545,0.9929345765101665,35.51001315981341,-0.06676959861103578,4.0,117.487988
1048,35.68024332836477,0.9788320876223583,35.54405919352368,-0.157003033599622,4.0,117.487988
1049,35.71428936207504,0.7939674593080338,35.578105227233955,-0.14226382343049768,4.0,117.487988
1050,35.74833539578531,0.4185566566059163,35.61215126094422,-0.1425195032207627,4.0,117.487988
1051,35.78238142949559,-0.09265664141419096,35.6461972946545,-0.25371463454664245,4.0,117.487988
1052,35.816427463205855,-0.6269681609800415,35.68024332836477,-0.5106559068755386,4.0,117.487988
1053,35.85047349691612,-1.0498092606297686,35.714289362075036,-0.8732668009856686,4.0,117.487988
1054,35.8845195306264,-1.247379588358693,35.74833539578531,-1.23432798091897,4.0,117.487988
1055,35.91856556433667,-1.1647196601508998,35.78238142949558,-1.448332885608157,4.0,117.487988
1056,35.95261159804694,-0.8274523243659466,35.816427463205855,-1.3811289289870285,4.0,117.487988
1057,35.98665763175721,-0.33491326386238174,35.85047349691612,-0.9704696710968644,4.0,117.487988
1058,36.02070366546749,0.17758420105420267,35.918565564336674,0.5391540454949996,3.0,88.11599100000001
1059,36.054749699177755,0.5898007953758134,35.95261159804694,1.2290948951754244,3.0,88.11599100000001
1060,36.08879573288803,0.8327261860084737,35.98665763175722,1.6004388593784105,3.0,88.11599100000001
1061,36.1228417665983,0.8936289856150063,36.02070366546749,1.578589017848852,3.0,88.11599100000001
1062,36.156887800308574,0.7966795704459079,36.05474969917776,1.2370746434547644,3.0,88.11599100000001
1063,36.19093383401884,0.5782564290191452,36.08879573288803,0.750363320575841,3.0,88.11599100000001
1064,36.22497986772912,0.27236500817853804,36.122841766598306,0.30447586148890443,3.0,88.11599100000001
1065,36.25902590143939,-0.08942588153339046,36.156887800308574,0.016706436421659906,3.0,88.11599100000001
1066,36.29307193514966,-0.4695432909845566,36.19093383401885,-0.09761020680560845,3.0,88.11599100000001
1067,36.32711796885993,-0.819273923332224,36.22497986772912,-0.10633978515649493,3.0,88.11599100000001
1068,36.361164002570206,-1.0855168345143538,36.259025901439394,-0.11230571859894416,3.0,88.11599100000001
1069,36.395210036280474,-1.226001123909827,36.29307193514966,-0.20442176579273574,3.0,88.11599100000001
1070,36.42925606999075,-1.2204719826555461,36.32711796885994,-0.42509223375588584,3.0,88.11599100000001
1071,36.46330210370102,-1.0708951967401834,36.361164002570206,-0.7554828129031993,3.0,88.11599100000001
1072,36.49734813741129,-0.7969007847325343,36.395210036280474,-1.1149375851555456,3.0,88.11599100000001
1073,36.53139417112156,-0.4353493456369325,36.42925606999075,-1.3761429279668995,3.0,88.11599100000001
1074,36.56544020483183,-0.04211459093775534,36.46330210370102,-1.4021228637344203,3.0,88.11599100000001
1075,36.599486238542106,0.3139845275460174,36.497348137411294,-1.1030732998169237,3.0,88.11599100000001
1076,36.633532272252374,0.569224338712002,36.53139417112156,-0.4920167134196604,3.0,88.11599100000001
1077,36.66757830596265,0.6870456841724849,36.56544020483184,0.2949142337255708,3.0,88.11599100000001
1078,36.70162433967292,0.6720214309324941,36.599486238542106,1.0374381018643484,3.0,88.11599100000001
1079,36.73567037338319,0.5684662879778052,36.63353227225238,1.5195774101467645,3.0,88.11599100000001
1080,36.76971640709346,0.4430001667438537,36.66757830596265,1.6232823508877308,3.0,88.11599100000001
1081,36.80376244080374,0.35703151185076776,36.701624339672925,1.3749031565027794,3.0,88.11599100000001
1082,36.837808474514006,0.34242173859032443,36.73567037338319,0.9193991306198478,3.0,88.11599100000001
1083,36.87185450822428,0.39452318072809694,36.76971640709347,0.4408770261325935,3.0,88.11599100000001
1084,36.90590054193455,0.4851187736887703,36.80376244080374,0.0774204940575944,3.0,88.11599100000001
1085,36.939946575644825,0.581918201398621,36.83780847451401,-0.12513289906737907,3.0,88.11599100000001
1086,36.97399260935509,0.6577683432990167,36.87185450822428,-0.2054153813710902,3.0,88.11599100000001
1087,37.00803864306537,0.6858331697696229,36.90590054193456,-0.24268415309212035,3.0,88.11599100000001
1088,37.04208467677564,0.632644193516446,36.939946575644825,-0.30997146430062683,3.0,88.11599100000001
1089,37.076130710485906,0.46334219506500623,36.97399260935509,-0.44853998582095417,3.0,88.11599100000001
1090,37.11017674419618,0.16144082130511267,37.00803864306537,-0.6658854726641065,3.0,88.11599100000001
1091,37.14422277790645,-0.24873146450840494,37.04208467677564,-0.9422207567230374,3.0,88.11599100000001
1092,37.178268811616725,-0.6930430549991854,37.07613071048591,-1.230442962240391,3.0,88.11599100000001
1093,37.21231484532699,-1.0618855017446653,37.11017674419618,-1.4502855089585254,3.0,88.11599100000001
1094,37.24636087903727,-1.2475347439667772,37.14422277790646,-1.4936393891649342,3.0,88.11599100000001
1095,37.28040691274754,-1.1921290764346342,37.178268811616725,-1.2578472534905436,3.0,88.11599100000001
1096,37.31445294645781,-0.9205405766391629,37.212314845327,-0.7026962069713206,3.0,88.11599100000001
1097,37.34849898016808,-0.5314139237108584,37.24636087903727,0.10038869063465009,3.0,88.11599100000001
1098,37.38254501387836,-0.14470369989975662,37.280406912747544,0.9670787114134209,3.0,88.11599100000001
1099,37.416591047588625,0.16035935837530396,37.31445294645781,1.663310991963775,3.0,88.11599100000001
1100,37.4506370812989,0.37322643415949175,37.34849898016809,2.0064298475603404,3.0,88.11599100000001
1101,37.48468311500917,0.5308422755902136,37.38254501387836,1.9478730263397674,3.0,88.11599100000001
1102,37.518729148719444,0.6709624049929304,37.41659104758863,1.5887828401032984,3.0,88.11599100000001
1103,37.55277518242971,0.7975793284869152,37.4506370812989,1.1206751740361183,3.0,88.11599100000001
1104,37.58682121613999,0.8790838697865135,37.484683115009176,0.727439054583981,3.0,88.11599100000001
1105,37.62086724985026,0.8729074873548124,37.518729148719444,0.5034156715658439,3.0,88.11599100000001
1106,37.654913283560525,0.7555030948053095,37.55277518242971,0.42715351723941375,3.0,88.11599100000001
1107,37.6889593172708,0.5386886369540567,37.58682121613999,0.3957090570056225,3.0,88.11599100000001
1108,37.72300535098107,0.26509142219167364,37.62086724985026,0.2927764620510709,3.0,88.11599100000001
1109,37.757051384691344,-0.01203211898767264,37.65491328356053,0.051940694414430895,3.0,88.11599100000001
1110,37.79109741840161,-0.25191234897435744,37.6889593172708,-0.3138275858049342,3.0,88.11599100000001
1111,37.82514345211189,-0.44032880146952086,37.723005350981076,-0.7239614311435588,3.0,88.11599100000001
1112,37.85918948582216,-0.5897490424894778,37.757051384691344,-1.0717169071621329,3.0,88.11599100000001
1113,37.89323551953243,-0.7281873006605791,37.79109741840162,-1.2743556587558782,3.0,88.11599100000001
1114,37.9272815532427,-0.8822936633880267,37.82514345211189,-1.3113886260943144,3.0,88.11599100000001
1115,37.961327586952976,-1.0598545859663533,37.859189485822164,-1.2354428614252466,3.0,88.11599100000001
1116,37.995373620663244,-1.237843631325726,37.85918948582216,-1.2354428614252648,4.0,117.487988
1117,38.02941965437352,-1.3629748509579152,37.89323551953243,-1.148581326763301,4.0,117.487988
1118,38.06346568808379,-1.3672887548061836,37.9272815532427,-1.1491024391401632,4.0,117.487988
1119,38.09751172179406,-1.1937606554652052,37.961327586952976,-1.2693033318404028,4.0,117.487988
1120,38.13155775550433,-0.8232031613068681,37.995373620663244,-1.4366679219697034,4.0,117.487988
1121,38.16560378921461,-0.29330538672265793,38.02941965437352,-1.4885036732607706,4.0,117.487988
1122,38.199649822924876,0.30081144409066096,38.06346568808379,-1.2466827613901093,4.0,117.487988
1123,38.233695856635144,0.8325235167739883,38.097511721794056,-0.6221451959554737,4.0,117.487988
1124,38.26774189034542,1.1904766739207144,38.13155775550433,0.3094761734906603,4.0,117.487988
1125,38.30178792405569,1.3243004976101236,38.1656037892146,1.31443623205968,4.0,117.487988
1126,38.33583395776596,1.2645026815677556,38.199649822924876,2.098233831072581,4.0,117.487988
1127,38.36987999147623,1.1054429538236206,38.233695856635144,2.443829174508185,4.0,117.487988
1128,38.40392602518651,0.9601181651134725,38.26774189034542,2.3111044528670477,4.0,117.487988
1129,38.437972058896776,0.9096535812980934,38.30178792405569,1.8412209866351517,4.0,117.487988
1130,38.47201809260705,0.9711424378683997,38.33583395776596,1.2693387513973395,4.0,117.487988
1131,38.50606412631732,1.0950175194758267,38.33583395776596,1.2693387513973395,5.0,146.859985
1132,38.540110160027595,1.1878959337919777,38.36987999147624,0.8024758655151376,5.0,146.859985
1133,38.57415619373786,1.1497672211061694,38.40392602518651,0.5320201931907685,5.0,146.859985
1134,38.60820222744814,0.9144645721500558,38.43797205889678,0.4206712274133812,5.0,146.859985
1135,38.64224826115841,0.4811969822941704,38.50606412631732,0.23287851953026198,4.0,117.487988
1136,38.67629429486868,-0.0780700345198365,38.540110160027595,0.007046862502794595,4.0,117.487988
1137,38.71034032857895,-0.6455861115207462,38.57415619373786,-0.28815134557893324,4.0,117.487988
1138,38.74438636228923,-1.1106528210249051,38.60820222744814,-0.5774053522263721,4.0,117.487988
1139,38.778432395999495,-1.4187752983753843,38.64224826115841,-0.7952592917319238,4.0,117.487988
1140,38.81247842970977,-1.5848495933781312,38.67629429486868,-0.9265336504334969,4.0,117.487988
1141,38.84652446342004,-1.6613453093111612,38.71034032857895,-1.0128265987893623,4.0,117.487988
1142,38.88057049713031,-1.6851888140406153,38.74438636228922,-1.1215776741941554,4.0,117.487988
1143,38.91461653084058,-1.6431351979566065,38.778432395999495,-1.2937136006201049,4.0,117.487988
1144,38.94866256455085,-1.4822257175009053,38.81247842970976,-1.498933213894349,4.0,117.487988
1145,38.98270859826113,-1.1587530601047709,38.84652446342004,-1.6279593724340489,4.0,117.487988
1146,39.016754631971395,-0.6890305709282267,38.88057049713031,-1.5353107657981921,4.0,117.487988
1147,39.05080066568167,-0.16116003051092634,38.91461653084058,-1.1181582440360478,4.0,117.487988
1148,39.08484669939194,0.30487869386783983,38.94866256455085,-0.3903617175839306,4.0,117.487988
1149,39.118892733102214,0.6216083063195096,38.98270859826113,0.4953913046732002,4.0,117.487988
1150,39.15293876681248,0.777239884240181,39.016754631971395,1.2999004029557253,4.0,117.487988
1151,39.18698480052276,0.8302659248762723,39.05080066568167,1.8022121406013378,4.0,117.487988
1152,39.22103083423303,0.8652298410433131,39.08484669939194,1.8996150204404139,4.0,117.487988
1153,39.2550768679433,0.9427369581465197,39.118892733102214,1.6464997167904805,4.0,117.487988
1154,39.28912290165357,1.0714139724525718,39.15293876681248,1.2133236430663827,4.0,117.487988
1155,39.323168935363846,1.20936020062583,39.18698480052276,0.7943258991184623,4.0,117.487988
1156,39.357214969074114,1.287971967864244,39.22103083423303,0.5179345063793979,4.0,117.487988
1157,39.39126100278439,1.2460856219737646,39.2550768679433,0.40445038343392686,4.0,117.487988
1158,39.42530703649466,1.0606034276592105,39.28912290165357,0.38342741390662544,4.0,117.487988
1159,39.459353070204926,0.7599577612450097,39.32316893536384,0.3507564062286472,4.0,117.487988
1160,39.4933991039152,0.4133646953846051,39.357214969074114,0.2298981200133725,4.0,117.487988
1161,39.52744513762547,0.10123356144973829,39.39126100278438,0.006875829502435704,4.0,117.487988
1162,39.561491171335746,-0.11813379521232514,39.42530703649466,-0.27292735090923176,4.0,117.487988
1163,39.595537205046014,-0.23054415135879872,39.459353070204926,-0.5381637119323109,4.0,117.487988
1164,39.62958323875629,-0.2696679410887543,39.4933991039152,-0.7345887110127957,4.0,117.487988
1165,39.66362927246656,-0.30389575726128076,39.52744513762547,-0.8552836077882756,4.0,117.487988
1166,39.69767530617683,-0.4117170959376119,39.561491171335746,-0.9426108685763261,4.0,117.487988
1167,39.7317213398871,-0.6520466865669685,39.595537205046014,-1.0594297598394562,4.0,117.487988
1168,39.76576737359738,-1.0364374257301738,39.62958323875629,-1.2419802278894776,4.0,117.487988
1169,39.799813407307646,-1.5114567673208152,39.66362927246656,-1.4586517913458639,4.0,117.487988
1170,39.83385944101792,-1.9607918540522808,39.69767530617683,-1.6013241588374767,4.0,117.487988
1171,39.86790547472819,-2.233727240120366,39.7317213398871,-1.523957478825549,4.0,117.487988
1172,39.901951508438465,-2.1960839999962425,39.76576737359738,-1.117856818986796,4.0,117.487988
1173,39.93599754214873,-1.7859887223789652,39.799813407307646,-0.3864734307724958,4.0,117.487988
1174,39.97004357585901,-1.0499430767845919,39.83385944101792,0.5264378439363573,4.0,117.487988
1175,40.00408960956928,-0.1393619457194228,39.86790547472819,1.381054264070374,4.0,117.487988
1176,40.038135643279546,0.7380118007109875,39.90195150843846,1.9421801453934742,4.0,117.487988
1177,40.07218167698982,1.3962563560048884,39.93599754214873,2.0839683969566747,4.0,117.487988
1178,40.10622771070009,1.7425517809494981,39.970043575859,1.8409756358646858,4.0,117.487988
1179,40.140273744410365,1.8020396192046548,40.00408960956928,1.379018114125713,4.0,117.487988
1180,40.17431977812063,1.682071991546668,40.038135643279546,0.9061186773313987,4.0,117.487988
1181,40.20836581183091,1.5002691857748287,40.07218167698982,0.5752302755535981,4.0,117.487988
1182,40.24241184554118,1.3232872070091892,40.10622771070009,0.4285086571093213,4.0,117.487988
1183,40.27645787925145,1.152915679606034,40.140273744410365,0.40383766013419786,4.0,117.487988
1184,40.31050391296172,0.9605552904763632,40.17431977812063,0.3893826743153268,4.0,117.487988
1185,40.344549946672,0.7359307038746166,40.20836581183091,0.29097764735119286,4.0,117.487988
1186,40.378595980382265,0.5075226988955084,40.24241184554118,0.07771542584297429,4.0,117.487988
1187,40.41264201409254,0.3172409614565224,40.27645787925145,-0.21206916216612565,4.0,117.487988
1188,40.44668804780281,0.17083584903216936,40.31050391296172,-0.5008203063783399,4.0,117.487988
1189,40.480734081513084,0.008291929350623766,40.344549946672,-0.7185437613812878,4.0,117.487988
1190,40.51478011522335,-0.27242587092249715,40.378595980382265,-0.8420372806866397,4.0,117.487988
1191,40.54882614893363,-0.7421950957245422,40.41264201409254,-0.9071898131424412,4.0,117.487988
1192,40.5828721826439,-1.3616775900284313,40.44668804780281,-0.9867574257954368,4.0,117.487988
1193,40.616918216354165,-1.9559882542088696,40.48073408151308,-1.1413376995981723,4.0,117.487988
1194,40.65096425006444,-2.278500969637222,40.51478011522335,-1.366318439121254,4.0,117.487988
1195,40.68501028377471,-2.1404644933595476,40.54882614893362,-1.566102493906342,4.0,117.487988
1196,40.719056317484984,-1.5278973711995036,40.5828721826439,-1.5805871337303283,4.0,117.487988
1197,40.75310235119525,-0.6247520809874969,40.616918216354165,-1.2636604017241184,4.0,117.487988
1198,40.78714838490553,0.27719872777108306,40.65096425006444,-0.5783155788159813,4.0,117.487988
1199,40.8211944186158,0.9232953825100354,40.68501028377471,0.34923462598683414,4.0,117.487988
1200,40.85524045232607,1.2055932314103572,40.719056317484984,1.260808718355534,4.0,117.487988
1201,40.88928648603634,1.180331097610998,40.75310235119525,1.878185839205561,4.0,117.487988
1202,40.923332519746616,1.0008860791385137,40.78714838490553,2.036367044942293,4.0,117.487988
1203,40.957378553456884,0.8206951245172777,40.8211944186158,1.7596854076083255,4.0,117.487988
1204,40.99142458716716,0.723812561854098,40.85524045232607,1.2362513491979956,4.0,117.487988
1205,41.02547062087743,0.7090212087407123,40.88928648603634,0.7100468774041517,4.0,117.487988
1206,41.0595166545877,0.7172558481252161,40.923332519746616,0.35809050907046935,4.0,117.487988
1207,41.09356268829797,0.6757293832225423,40.957378553456884,0.22162540942858663,4.0,117.487988
1208,41.12760872200825,0.5359383482005831,40.99142458716716,0.22002737848811954,4.0,117.487988
1209,41.161654755718516,0.29287402883575553,41.02547062087743,0.22499236025407215,4.0,117.487988
1210,41.19570078942879,-0.01882605960486201,41.0595166545877,0.14261329334975156,4.0,117.487988
1211,41.22974682313906,-0.3475099597937231,41.09356268829797,-0.04405439421502659,4.0,117.487988
1212,41.26379285684933,-0.6518600774939216,41.12760872200824,-0.28816696381357304,4.0,117.487988
1213,41.2978388905596,-0.9144227665609435,41.161654755718516,-0.5287523494752142,4.0,117.487988
1214,41.33188492426987,-1.1313696512796982,41.195700789428784,-0.7382330575109882,4.0,117.487988
1215,41.36593095798015,-1.2878212977206056,41.22974682313906,-0.9346193550187698,4.0,117.487988
1216,41.399976991690416,-1.3432647538678981,41.26379285684933,-1.1503199734180816,4.0,117.487988
1217,41.43402302540069,-1.246527677373044,41.2978388905596,-1.379596828325823,4.0,117.487988
1218,41.46806905911096,-0.9740991033199046,41.33188492426987,-1.5442738436379868,4.0,117.487988
1219,41.502115092821235,-0.5610612040123413,41.36593095798015,-1.510461672785637,4.0,117.487988
1220,41.5361611265315,-0.09556707331723367,41.399976991690416,-1.1584541839745308,4.0,117.487988
1221,41.57020716024178,0.32349658883705174,41.43402302540069,-0.4696141102270775,4.0,117.487988
1222,41.60425319395205,0.635826717341438,41.46806905911096,0.42664386052808456,4.0,117.487988
1223,41.63829922766232,0.8405339807562673,41.502115092821235,1.286374736502352,4.0,117.487988
1224,41.67234526137259,0.975873350199141,41.5361611265315,1.8566801492615623,4.0,117.487988
1225,41.70639129508287,1.077380016783772,41.57020716024178,1.994832998689889,4.0,117.487988
1226,41.740437328793135,1.1487480399269911,42.3873119692883,0.8941946711659811,-19.0,-558.067943
