frame_idx,t_rppg,rppg_n,t_gt_pair,ppg_n_pair,lag_samples,lag_frames
0,0.0,-0.15905250456878894,0.0,-0.008673952669230505,0.0,0.0
1,0.03360738362283966,-0.4967552429672368,0.03360738362283966,-0.021662328736526307,0.0,0.0
2,0.06721476724567932,-0.7151906152651216,0.06721476724567932,-0.03395667646125687,0.0,0.0
3,0.10082215086851898,-0.7559046530469611,0.10082215086851898,-0.04848379061874521,0.0,0.0
4,0.13442953449135864,-0.6473006153056435,0.13442953449135864,-0.07266604152553219,0.0,0.0
5,0.1680369181141983,-0.49010521755999326,0.1680369181141983,-0.11789650589294655,0.0,0.0
6,0.20164430173703796,-0.4033566843426763,0.20164430173703796,-0.19793362135838052,0.0,0.0
7,0.23525168535987762,-0.4593717755970277,0.23525168535987762,-0.3255034639092588,0.0,0.0
8,0.2688590689827173,-0.6446352843206526,0.2688590689827173,-0.5048933377861814,0.0,0.0
9,0.30246645260555693,-0.8670962594161323,0.30246645260555693,-0.7202598756484009,0.0,0.0
10,0.3360738362283966,-1.0012349132731957,0.3360738362283966,-0.9250834684544952,0.0,0.0
11,0.36968121985123625,-0.9436282675541107,0.36968121985123625,-1.0432991328146948,0.0,0.0
12,0.4032886034740759,-0.6535166383833935,0.4032886034740759,-0.990833352399177,0.0,0.0
13,0.4368959870969156,-0.1659793448343475,0.4368959870969156,-0.7149502368409395,0.0,0.0
14,0.47050337071975523,0.42232698481335873,0.47050337071975523,-0.23338313315344814,0.0,0.0
15,0.5041107543425949,0.9866046322182311,0.5041107543425949,0.3523802174233038,0.0,0.0
16,0.5377181379654346,1.4131055136596045,0.5377181379654346,0.8855864452599743,0.0,0.0
17,0.5713255215882742,1.6302929982896175,0.5713255215882742,1.2162089257534618,0.0,0.0
18,0.6049329052111139,1.6237347206194999,0.6049329052111139,1.2654064613380176,0.0,0.0
19,0.6385402888339535,1.4338006871943607,0.6385402888339535,1.0573262760191218,0.0,0.0
20,0.6721476724567932,1.1390625849913454,0.6721476724567932,0.7016716536630124,0.0,0.0
21,0.7057550560796328,0.8292902448552159,0.7057550560796328,0.3387513501076608,0.0,0.0
22,0.7393624397024725,0.5747377881783668,0.7393624397024725,0.07797904467620907,0.0,0.0
23,0.7729698233253122,0.4028349183975197,0.7729698233253122,-0.03965480610719263,0.0,0.0
24,0.8065772069481518,0.2932144578603946,0.8065772069481518,-0.041684856354465644,0.0,0.0
25,0.8401845905709915,0.1937278173297418,0.8401845905709915,0.005153837245264487,0.0,0.0
26,0.8737919741938311,0.04904032617616002,0.8737919741938311,0.03249064521939977,0.0,0.0
27,0.9073993578166708,-0.17224546700539656,0.9073993578166708,-0.003978089023126212,0.0,0.0
28,0.9410067414395105,-0.4637155344006247,0.9410067414395105,-0.11843103130144683,0.0,0.0
29,0.9746141250623501,-0.7850265874623424,0.9746141250623501,-0.3020965571008091,0.0,0.0
30,1.0082215086851898,-1.0793838500018158,1.0082215086851898,-0.5307883107672845,0.0,0.0
31,1.0418288923080294,-1.293986727077914,1.0418288923080294,-0.7649087280504543,0.0,0.0
32,1.075436275930869,-1.3928537970530637,1.075436275930869,-0.9457454643484644,0.0,0.0
33,1.1090436595537088,-1.3589870377577904,1.1090436595537088,-1.0003261734262743,0.0,0.0
34,1.1426510431765484,-1.1915607195579594,1.1426510431765484,-0.8640915485930635,0.0,0.0
35,1.176258426799388,-0.9052853666726742,1.176258426799388,-0.516522417142712,0.0,0.0
36,1.2098658104222277,-0.5329034869550361,1.2098658104222277,-0.009596382082915113,0.0,0.0
37,1.2434731940450674,-0.12577550009220187,1.2434731940450674,0.5342226738599504,0.0,0.0
38,1.277080577667907,0.2525749024768675,1.277080577667907,0.9628903597323561,0.0,0.0
39,1.3106879612907467,0.5409780375397516,1.3106879612907467,1.1581479918193962,0.0,0.0
40,1.3442953449135864,0.6994018709752436,1.3442953449135864,1.087730136553755,0.0,0.0
41,1.377902728536426,0.7239955033481514,1.377902728536426,0.8168589661152841,0.0,0.0
42,1.4115101121592657,0.6492270652932719,1.4115101121592657,0.47286498970642826,0.0,0.0
43,1.4451174957821054,0.5331262716631011,1.4451174957821054,0.18359977923155796,0.0,0.0
44,1.478724879404945,0.43124610395756807,1.478724879404945,0.02328909100112495,0.0,0.0
45,1.5123322630277847,0.3719163182033978,1.5123322630277847,-0.008065539240607579,0.0,0.0
46,1.5459396466506243,0.3445672926427692,1.5459396466506243,0.03301907702507669,0.0,0.0
47,1.579547030273464,0.30540802367634384,1.579547030273464,0.07313100554028565,0.0,0.0
48,1.6131544138963037,0.19636804751872652,1.6131544138963037,0.05842169841870549,0.0,0.0
49,1.6467617975191433,-0.03038610041816296,1.6467617975191433,-0.02994302477310718,0.0,0.0
50,1.680369181141983,-0.38897101271217577,1.680369181141983,-0.18259951627870885,0.0,0.0
51,1.7139765647648226,-0.8431437223285151,1.7139765647648226,-0.3781381700219515,0.0,0.0
52,1.7475839483876623,-1.3036557723634188,1.7475839483876623,-0.5928010263654248,0.0,0.0
53,1.781191332010502,-1.6460037524474398,1.781191332010502,-0.7970866375669542,0.0,0.0
54,1.8147987156333416,-1.7480104718976284,1.8147987156333416,-0.9463954925378273,0.0,0.0
55,1.8484060992561813,-1.5355137839368662,1.8484060992561813,-0.9807991923199094,0.0,0.0
56,1.882013482879021,-1.015994545764703,1.882013482879021,-0.8443402109878786,0.0,0.0
57,1.9156208665018606,-0.2816154092985344,1.9156208665018606,-0.5188268440978014,0.0,0.0
58,1.9492282501247002,0.5225864428646049,1.9492282501247002,-0.051612347525430986,0.0,0.0
59,1.98283563374754,1.249922551079346,1.98283563374754,0.4456230877447333,0.0,0.0
60,2.0164430173703796,1.7963090253047667,2.0164430173703796,0.834703141815887,0.0,0.0
61,2.0500504009932192,2.117820611404632,2.0500504009932192,1.0090168840747011,0.0,0.0
62,2.083657784616059,2.220411345745563,2.083657784616059,0.9402625453491663,0.0,0.0
63,2.1172651682388985,2.1363336101112784,1.377902728536426,0.8168589661152841,22.0,654.6180519999999
64,2.150872551861738,1.9043823930412274,1.4115101121592657,0.47286498970642826,22.0,654.6180519999999
65,2.184479935484578,1.5624120637718912,1.4451174957821054,0.18359977923155796,22.0,654.6180519999999
66,2.2180873191074175,1.1495905239391018,1.478724879404945,0.02328909100112495,22.0,654.6180519999999
67,2.251694702730257,0.7104065428271831,2.95744975880989,-0.2780379104630408,-21.0,-624.8626859999999
68,2.285302086353097,0.2941036455867916,2.285302086353097,-0.056328327055534894,0.0,0.0
69,2.3189094699759365,-0.05244838755463413,2.3189094699759365,-0.0004521316886104131,0.0,0.0
70,2.352516853598776,-0.2973630838310185,2.352516853598776,0.014029365711468138,0.0,0.0
71,2.386124237221616,-0.43772436623846506,2.386124237221616,-0.039282322805372,0.0,0.0
72,2.4197316208444555,-0.5065639598326962,2.4197316208444555,-0.16030040259933595,0.0,0.0
73,2.453339004467295,-0.5637001592353458,2.453339004467295,-0.3315286998828508,0.0,0.0
74,2.486946388090135,-0.6690021895397985,2.486946388090135,-0.5241075825229323,0.0,0.0
75,2.5205537717129745,-0.8490042798686311,3.1927014441697676,-0.6840783744430106,-20.0,-595.10732
76,2.554161155335814,-1.0755410137987342,3.2263088277926073,-1.0464033893714315,-20.0,-595.10732
77,2.5877685389586538,-1.2720234850175165,3.259916211415447,-1.346540706432386,-20.0,-595.10732
78,2.6213759225814934,-1.349248748897096,3.2935235950382866,-1.4608009683516814,-20.0,-595.10732
79,2.654983306204333,-1.2545375689728582,3.3271309786611263,-1.2809001041156505,-20.0,-595.10732
80,2.6885906898271728,-1.0065315001153867,3.360738362283966,-0.7712572664787719,-20.0,-595.10732
81,2.7221980734500124,-0.6927514602902477,3.3943457459068056,-0.013149070821361426,-20.0,-595.10732
82,2.755805457072852,-0.42785237350067784,3.4279531295296453,0.7999557315642217,-20.0,-595.10732
83,2.7894128406956917,-0.2953693471928901,3.461560513152485,1.4276288497876268,-20.0,-595.10732
84,2.8230202243185314,-0.30798780434159745,3.831241733003721,0.010674777696678692,-30.0,-892.66098
85,2.856627607941371,-0.4107400538771568,3.864849116626561,-0.3125334792281345,-30.0,-892.66098
86,2.8902349915642107,-0.5231741724261262,3.8984565002494005,-0.6841399934814189,-30.0,-892.66098
87,2.9238423751870504,-0.5903360670814901,3.93206388387224,-0.9192155058599175,-30.0,-892.66098
88,2.95744975880989,-0.6081828697068401,2.7221980734500124,0.9244051228110894,7.0,208.28756199999998
89,2.9910571424327297,-0.6092636616945838,2.755805457072852,1.261756191635385,7.0,208.28756199999998
90,3.0246645260555693,-0.6228541255300135,2.7894128406956917,1.3303208016550516,7.0,208.28756199999998
91,3.058271909678409,-0.6402653769564249,2.8230202243185314,1.1185482797899946,7.0,208.28756199999998
92,3.0918792933012487,-0.6115427775279586,2.856627607941371,0.7126205536340359,7.0,208.28756199999998
93,3.1254866769240883,-0.4781093603732034,2.8902349915642107,0.2591377256376337,7.0,208.28756199999998
94,3.159094060546928,-0.21968331787929077,2.9238423751870504,-0.09855640624521585,7.0,208.28756199999998
95,3.1927014441697676,0.12008809510543457,2.95744975880989,-0.2780379104630408,7.0,208.28756199999998
96,3.2263088277926073,0.453396577000879,2.9910571424327297,-0.28191122001837343,7.0,208.28756199999998
97,3.259916211415447,0.7048715667554086,3.0246645260555693,-0.18129223480440051,7.0,208.28756199999998
98,3.2935235950382866,0.866349588516561,3.058271909678409,-0.07408444793235465,7.0,208.28756199999998
99,3.3271309786611263,1.0085445501269856,3.0918792933012487,-0.04369949361309832,7.0,208.28756199999998
100,3.360738362283966,1.2362785601380955,4.032886034740759,0.1277191865848256,-20.0,-595.10732
101,3.3943457459068056,1.6121839811782208,4.066493418363599,0.7631467826504238,-20.0,-595.10732
102,3.4279531295296453,2.0967864176813493,4.133708185609278,1.2811917316687251,-21.0,-624.8626859999999
103,3.461560513152485,2.5461101637251105,4.167315569232118,1.0151350094320475,-21.0,-624.8626859999999
104,3.4951678967753246,2.774622708407265,4.167315569232118,1.0151350094320475,-20.0,-595.10732
105,3.5287752803981642,2.651349282597105,4.200922952854958,0.527230361311339,-20.0,-595.10732
106,3.562382664021004,2.175371862263565,4.234530336477797,0.013171060564023762,-20.0,-595.10732
107,3.5959900476438436,1.4864935901540786,3.360738362283966,-0.7712572664787719,7.0,208.28756199999998
108,3.629597431266683,0.8015171023965516,3.3943457459068056,-0.013149070821361426,7.0,208.28756199999998
109,3.663204814889523,0.3077958564782645,4.705033707197552,0.9819721827856046,-31.0,-922.416346
110,3.6968121985123625,0.0712221068820032,4.738641090820392,1.301497838116505,-31.0,-922.416346
111,3.730419582135202,0.009591588031109998,4.772248474443232,1.256436019658965,-31.0,-922.416346
112,3.764026965758042,-0.05383135713785523,4.805855858066071,0.9102842906727789,-31.0,-922.416346
113,3.7976343493808815,-0.2864840981790448,4.839463241688911,0.4329107377931079,-31.0,-922.416346
114,3.831241733003721,-0.7495204865244582,4.873070625311751,0.015465988123084492,-31.0,-922.416346
115,3.864849116626561,-1.3602257688739432,4.90667800893459,-0.2166239396878958,-31.0,-922.416346
116,3.8984565002494005,-1.9340276878261942,4.9402853925574295,-0.2513628575720872,-31.0,-922.416346
117,3.93206388387224,-2.2834160084176056,4.97389277618027,-0.17913196414135663,-31.0,-922.416346
118,3.96567126749508,-2.3195946831345013,5.00750015980311,-0.1318373854228376,-31.0,-922.416346
119,3.9992786511179195,-2.099799540128833,3.764026965758042,0.06834858475535953,7.0,208.28756199999998
120,4.032886034740759,-1.7929019927926428,3.7976343493808815,0.14878671771274243,7.0,208.28756199999998
121,4.066493418363599,-1.5841143916028855,2.2516947027302576,-0.09980041464442727,54.0,1606.7897639999999
122,4.1001008019864384,-1.5773361744715741,2.285302086353097,-0.056328327055534894,54.0,1606.7897639999999
123,4.1337081856092786,-1.753234170765936,2.318909469975937,-0.0004521316886102217,54.0,1606.7897639999999
124,4.167315569232118,-2.0007640989340123,2.352516853598776,0.014029365711468138,54.0,1606.7897639999999
125,4.200922952854958,-2.190997701931813,2.3861242372216163,-0.039282322805373596,54.0,1606.7897639999999
126,4.234530336477797,-2.2413324967164594,2.4197316208444555,-0.16030040259933595,54.0,1606.7897639999999
127,4.268137720100637,-2.133836583953092,2.4533390044672956,-0.33152869988285333,54.0,1606.7897639999999
128,4.301745103723476,-1.885860581384848,2.486946388090135,-0.5241075825229323,54.0,1606.7897639999999
129,4.3353524873463165,-1.5025775307381852,2.520553771712975,-0.6965435899179441,54.0,1606.7897639999999
130,4.368959870969156,-0.952620092452269,2.554161155335814,-0.7923642887612456,54.0,1606.7897639999999
131,4.402567254591996,-0.19019508722890618,2.587768538958654,-0.7481671776429047,54.0,1606.7897639999999
132,4.436174638214835,0.78984418448905,2.6213759225814934,-0.5177641131821761,54.0,1606.7897639999999
133,4.469782021837675,1.9053133546876566,2.6549833062043335,-0.10418070701723448,54.0,1606.7897639999999
134,4.503389405460514,2.9862933934039906,2.6885906898271728,0.42028225819931603,54.0,1606.7897639999999
135,4.5369967890833545,3.8277238259928366,2.722198073450013,0.9244051228110939,54.0,1606.7897639999999
136,4.570604172706194,4.267555735637598,3.1254866769240883,-0.13661058145588661,43.0,1279.480738
137,4.604211556329034,4.249368363954276,3.1590940605469284,-0.35959080654490166,43.0,1279.480738
138,4.637818939951873,3.839117674070331,3.1927014441697676,-0.6840783744430106,43.0,1279.480738
139,4.671426323574713,3.1893946393112143,3.2263088277926077,-1.0464033893714355,43.0,1279.480738
140,4.705033707197552,2.470056665135678,3.259916211415447,-1.346540706432386,43.0,1279.480738
141,4.738641090820392,1.8017969430784024,3.293523595038287,-1.460800968351679,43.0,1279.480738
142,4.772248474443232,1.2271573590862936,3.360738362283966,-0.7712572664787719,42.0,1249.7253719999999
143,4.805855858066072,0.7291104624704212,3.3607383622839664,-0.7712572664787619,43.0,1279.480738
144,4.839463241688911,0.2772107870971359,3.3943457459068056,-0.013149070821361426,43.0,1279.480738
145,4.873070625311751,-0.13314545368398945,3.7640269657580423,0.0683485847553606,33.0,981.9270779999999
146,4.90667800893459,-0.47401697396953774,3.7976343493808815,0.14878671771274243,33.0,981.9270779999999
147,4.94028539255743,-0.7117666571369528,3.8312417330037216,0.010674777696674421,33.0,981.9270779999999
148,4.97389277618027,-0.8437017708785619,3.864849116626561,-0.3125334792281345,33.0,981.9270779999999
149,5.00750015980311,-0.9134019892244244,3.898456500249401,-0.684139993481422,33.0,981.9270779999999
150,5.041107543425949,-0.9906576838331003,3.93206388387224,-0.9192155058599175,33.0,981.9270779999999
151,5.074714927048789,-1.1296883962773006,3.9656712674950803,-0.8665888312885508,33.0,981.9270779999999
152,5.108322310671628,-1.3345303892208003,3.96567126749508,-0.8665888312885558,34.0,1011.6824439999999
153,5.141929694294468,-1.5535298688815609,3.99927865111792,-0.4844699840014243,34.0,1011.6824439999999
154,5.1755370779173075,-1.7052563908367526,4.032886034740759,0.1277191865848256,34.0,1011.6824439999999
155,5.209144461540148,-1.7202689445976362,4.066493418363599,0.7631467826504238,34.0,1011.6824439999999
156,5.242751845162987,-1.5760504306122662,4.1001008019864384,1.1959496919075503,34.0,1011.6824439999999
157,5.276359228785827,-1.3085317955963012,4.1337081856092786,1.2811917316687274,34.0,1011.6824439999999
158,5.309966612408666,-0.9975909701288491,4.167315569232118,1.0151350094320475,34.0,1011.6824439999999
159,5.343573996031506,-0.7352392724715298,4.167315569232118,1.0151350094320475,35.0,1041.43781
160,5.3771813796543455,-0.5891200223472085,4.200922952854958,0.527230361311339,35.0,1041.43781
161,5.410788763277186,-0.574904726355661,4.234530336477798,0.013171060564014075,35.0,1041.43781
162,5.444396146900025,-0.6513750074907567,4.268137720100636,-0.3533560592574768,35.0,1041.43781
163,5.478003530522865,-0.7452144928023297,4.301745103723476,-0.4883743664051931,35.0,1041.43781
164,5.511610914145704,-0.7956502829857887,4.3353524873463165,-0.41949017345608947,35.0,1041.43781
165,5.545218297768544,-0.7919801912808114,4.368959870969157,-0.26022627237967155,35.0,1041.43781
166,5.5788256813913835,-0.7755588040947239,4.402567254591995,-0.15306268367206663,35.0,1041.43781
167,5.612433065014224,-0.7989460038349059,4.436174638214835,-0.2048900717583028,35.0,1041.43781
168,5.646040448637063,-0.8674947744133412,4.469782021837675,-0.4377280263465232,35.0,1041.43781
169,5.679647832259903,-0.9072845015763684,4.503389405460515,-0.7723727949038102,35.0,1041.43781
170,5.713255215882742,-0.7887413230513234,4.536996789083354,-1.0541525759420227,35.0,1041.43781
171,5.746862599505582,-0.3958482663780016,4.570604172706194,-1.1164095293954002,35.0,1041.43781
172,5.780469983128421,0.30210125574368485,4.604211556329034,-0.8594915162118876,35.0,1041.43781
173,5.8140773667512615,1.220325387074243,4.637818939951874,-0.30911355676414914,35.0,1041.43781
174,5.847684750374101,2.185025874404457,4.671426323574712,0.3796137257659666,35.0,1041.43781
175,5.881292133996941,2.996269023729644,4.705033707197552,0.9819721827856046,35.0,1041.43781
176,5.91489951761978,3.4908709613698723,5.309966612408666,1.0782704291765717,18.0,535.596588
177,5.94850690124262,3.5802618658604066,5.343573996031506,0.9745236523564702,18.0,535.596588
178,5.982114284865459,3.2623587811275874,5.3771813796543455,0.6081754935442795,18.0,535.596588
179,6.0157216684882995,2.6181497215927694,5.410788763277186,0.13956828573701896,18.0,535.596588
180,6.049329052111139,1.7943222813566326,5.444396146900025,-0.254007867962226,18.0,535.596588
181,6.082936435733979,0.9625536052559036,5.478003530522865,-0.463296898999896,18.0,535.596588
182,6.116543819356818,0.25805047484992677,5.511610914145704,-0.49012339911078284,18.0,535.596588
183,6.150151202979658,-0.2723238098302877,5.511610914145704,-0.49012339911078284,19.0,565.351954
184,6.183758586602497,-0.6732189866038869,5.00750015980311,-0.1318373854228376,35.0,1041.43781
185,6.217365970225337,-1.025879977222675,5.847684750374102,1.1147289527255793,11.0,327.30902599999996
186,6.250973353848177,-1.3715089183411018,5.88129213399694,1.2638701986453893,11.0,327.30902599999996
187,6.284580737471017,-1.6695035641072722,5.108322310671628,-0.608502887164443,35.0,1041.43781
188,6.318188121093856,-1.8222738418484778,5.141929694294468,-0.6936505233988279,35.0,1041.43781
189,6.351795504716696,-1.7476048503229658,5.175537077917308,-0.5384136667703021,35.0,1041.43781
190,6.385402888339535,-1.4440054838050111,5.209144461540147,-0.1360411978413743,35.0,1041.43781
191,6.419010271962375,-1.0021061067810402,5.242751845162987,0.395011671724392,35.0,1041.43781
192,6.452617655585215,-0.5575357043991185,5.276359228785827,0.8595581947753909,35.0,1041.43781
193,6.486225039208055,-0.22226004442102937,5.309966612408667,1.078270429176569,35.0,1041.43781
194,6.519832422830894,-0.04084792200148485,6.150151202979657,-0.390621094387194,11.0,327.30902599999996
195,6.553439806453734,0.007072834476880495,6.183758586602497,-0.5584010131924781,11.0,327.30902599999996
196,6.587047190076573,-0.028062847499977787,6.553439806453733,0.050154547379093695,1.0,29.755366
197,6.620654573699413,-0.10298395454109224,6.587047190076573,-0.22088880334119101,1.0,29.755366
198,6.654261957322253,-0.19999891832236624,6.620654573699413,-0.30040167146689767,1.0,29.755366
199,6.687869340945093,-0.32310663787940025,6.6542619573222535,-0.25812538245663413,1.0,29.755366
200,6.721476724567932,-0.47919288565996776,6.654261957322253,-0.2581253824566351,2.0,59.510732
201,6.755084108190772,-0.6557201784988477,6.687869340945093,-0.22142189689703598,2.0,59.510732
202,6.788691491813611,-0.8080233809924101,6.721476724567932,-0.29827466257645613,2.0,59.510732
203,6.822298875436451,-0.8665536084505684,6.755084108190772,-0.510793920288378,2.0,59.510732
204,6.8559062590592905,-0.7639965847975582,6.788691491813611,-0.7732471795919856,2.0,59.510732
205,6.889513642682131,-0.46897080287262055,6.822298875436451,-0.9293622391824311,2.0,59.510732
206,6.92312102630497,-0.007620010137776251,6.8559062590592905,-0.8345725400832656,2.0,59.510732
207,6.95672840992781,0.5380001538117508,6.889513642682131,-0.4423063669828748,2.0,59.510732
208,6.990335793550649,1.0526476053645135,6.92312102630497,0.15460728104700597,2.0,59.510732
209,7.023943177173489,1.4219959331640972,6.95672840992781,0.755909639755829,2.0,59.510732
210,7.0575505607963285,1.5676698377679892,6.990335793550649,1.146348999281101,2.0,59.510732
211,7.091157944419169,1.4727246874475848,7.023943177173489,1.198586934085581,2.0,59.510732
212,7.124765328042008,1.186684307168107,7.628876082384602,0.8786009134388889,-15.0,-446.33049
213,7.158372711664848,0.804357273408896,7.662483466007442,0.4008280217910721,-15.0,-446.33049
214,7.191980095287687,0.4251059299276408,7.124765328042008,0.04983625229413127,2.0,59.510732
215,7.225587478910527,0.11170534033904166,7.158372711664848,-0.22651075060827736,2.0,59.510732
216,7.259194862533366,-0.12908107220653933,7.191980095287687,-0.3107136767936036,2.0,59.510732
217,7.2928022461562065,-0.3323724532268856,7.225587478910527,-0.2780666133484533,2.0,59.510732
218,7.326409629779046,-0.5352334877051784,7.259194862533366,-0.25831655947323523,2.0,59.510732
219,7.360017013401886,-0.7364863401496956,7.2928022461562065,-0.35287930169749404,2.0,59.510732
220,7.393624397024725,-0.8846709165689941,7.8977351513673195,-0.6579599336992127,-15.0,-446.33049
221,7.427231780647565,-0.9053770232998329,7.93134253499016,-0.873989962457376,-15.0,-446.33049
222,7.460839164270404,-0.7517573728879642,7.964949918613,-0.9350486362770835,-15.0,-446.33049
223,7.4944465478932445,-0.44380887207833863,7.99855730223584,-0.7240722903206781,-15.0,-446.33049
224,7.528053931516084,-0.06783223720997958,8.032164685858678,-0.2386138225679488,-15.0,-446.33049
225,7.561661315138924,0.2652745386064878,8.065772069481518,0.390308611784339,-15.0,-446.33049
226,7.595268698761763,0.4756408477555815,8.099379453104358,0.9508662865398748,-15.0,-446.33049
227,7.628876082384603,0.5482857858013278,8.132986836727198,1.2487105985508293,-15.0,-446.33049
228,7.662483466007442,0.5266454374652351,8.166594220350037,1.1979126796076134,-15.0,-446.33049
229,7.6960908496302824,0.4755847240156911,8.200201603972877,0.8558694131737532,-15.0,-446.33049
230,7.729698233253122,0.44102489119875155,8.233808987595717,0.3862343161988135,-15.0,-446.33049
231,7.763305616875962,0.428059897289211,8.267416371218557,-0.02633877185236302,-15.0,-446.33049
232,7.796913000498801,0.4022175572587251,8.301023754841395,-0.2629304989290519,-15.0,-446.33049
233,7.830520384121641,0.30841255706979587,8.334631138464236,-0.31598095251215924,-15.0,-446.33049
234,7.86412776774448,0.10198719816987857,8.368238522087076,-0.27563659481160807,-15.0,-446.33049
235,7.89773515136732,-0.21662744401923448,8.97317142729819,-0.36986801949788933,-32.0,-952.171712
236,7.93134253499016,-0.5814295666677594,8.973171427298189,-0.36986801949788667,-31.0,-922.416346
237,7.964949918613,-0.874246387434185,8.670704974692633,1.0214483275766597,-21.0,-624.8626859999999
238,7.998557302235839,-0.9747794031624134,8.704312358315471,1.3366500512177137,-21.0,-624.8626859999999
239,8.032164685858678,-0.823745954728888,8.737919741938311,1.2901246489333644,-21.0,-624.8626859999999
240,8.065772069481518,-0.4613893602691112,8.771527125561152,0.9267526370104504,-21.0,-624.8626859999999
241,8.099379453104358,-0.014238443163839544,8.805134509183992,0.4068550023207729,-21.0,-624.8626859999999
242,8.132986836727198,0.3662541526171964,8.838741892806832,-0.07457354082069834,-21.0,-624.8626859999999
243,8.166594220350037,0.5775624249412773,8.87234927642967,-0.3767528608069664,-21.0,-624.8626859999999
244,8.200201603972877,0.6070805966046837,8.90595666005251,-0.46757655846396284,-21.0,-624.8626859999999
245,8.233808987595717,0.5176281473312012,8.93956404367535,-0.42198679782852183,-21.0,-624.8626859999999
246,8.267416371218557,0.39387621197249484,8.97317142729819,-0.36986801949788933,-21.0,-624.8626859999999
247,8.301023754841395,0.2905113390164433,8.973171427298189,-0.36986801949788667,-20.0,-595.10732
248,8.334631138464236,0.21427946988842275,9.006778810921029,-0.4205327267699283,-20.0,-595.10732
249,8.368238522087076,0.14078004562509563,9.040386194543869,-0.5997484412813496,-20.0,-595.10732
250,8.401845905709916,0.041962511000321966,9.107600961789549,-0.9634225576564548,-21.0,-624.8626859999999
251,8.435453289332754,-0.0983902583195498,9.141208345412387,-0.8616072348618515,-21.0,-624.8626859999999
252,8.469060672955594,-0.2833245639536308,9.141208345412387,-0.8616072348618515,-20.0,-595.10732
253,8.502668056578434,-0.5020591186068163,9.174815729035227,-0.473200184454852,-20.0,-595.10732
254,8.536275440201274,-0.7214765652428162,9.208423112658068,0.12159743222161139,-20.0,-595.10732
255,8.569882823824113,-0.8790006877506819,9.242030496280906,0.7349141373997055,-20.0,-595.10732
256,8.603490207446953,-0.8953731488843,9.275637879903746,1.153512080831455,-20.0,-595.10732
257,8.637097591069793,-0.7135167884998669,9.309245263526586,1.2380528748692075,-20.0,-595.10732
258,8.670704974692633,-0.34454761482942925,9.342852647149426,0.9862208681497023,-20.0,-595.10732
259,8.704312358315471,0.11283038899342786,9.376460030772265,0.5269285201883667,-20.0,-595.10732
260,8.737919741938311,0.5028148966239057,9.410067414395105,0.05168094756936529,-20.0,-595.10732
261,8.771527125561152,0.6861464640447604,9.443674798017945,-0.2780488057096825,-20.0,-595.10732
262,8.805134509183992,0.6199328874846066,9.477282181640785,-0.39995785993293925,-20.0,-595.10732
263,8.83874189280683,0.39521735069195424,9.510889565263623,-0.36560330396727997,-20.0,-595.10732
264,8.87234927642967,0.20088580358247893,9.544496948886463,-0.29865207918670705,-20.0,-595.10732
265,8.90595666005251,0.22273748148785055,10.183037237720416,-0.5556640350708698,-38.0,-1130.703908
266,8.93956404367535,0.5290051400647351,10.216644621343256,-0.8464109003405441,-38.0,-1130.703908
267,8.973171427298189,1.0108914517760723,10.250252004966097,-1.1530063666192927,-38.0,-1130.703908
268,9.006778810921029,1.4220805743237697,9.678926483377822,-0.8982388973756136,-20.0,-595.10732
269,9.040386194543869,1.5040940314277016,9.712533867000662,-0.8577480134200012,-20.0,-595.10732
270,9.073993578166709,1.129280107796484,9.746141250623502,-0.5104141995474174,-20.0,-595.10732
271,9.107600961789547,0.37772574027433614,9.77974863424634,0.10273878891471334,-20.0,-595.10732
272,9.141208345412387,-0.49874503909927714,9.81335601786918,0.8134613608030481,-20.0,-595.10732
273,9.174815729035227,-1.2058502246179172,9.84696340149202,1.393557998144639,-20.0,-595.10732
274,9.208423112658068,-1.555618838213067,9.88057078511486,1.6558763012209636,-20.0,-595.10732
275,9.242030496280906,-1.5510746374812898,9.914178168737699,1.5366292421227907,-20.0,-595.10732
276,9.275637879903746,-1.3619283408338982,9.94778555236054,1.1167776540880396,-20.0,-595.10732
277,9.309245263526586,-1.2099933592733993,9.98139293598338,0.5746051649237474,-20.0,-595.10732
278,9.342852647149426,-1.233984253657273,10.01500031960622,0.09798471716655495,-20.0,-595.10732
279,9.376460030772265,-1.4113759067564458,10.048607703229058,-0.1979242073386237,-20.0,-595.10732
280,9.410067414395105,-1.5767909724269242,10.082215086851898,-0.30985640850497864,-20.0,-595.10732
281,9.443674798017945,-1.5183144998495053,10.115822470474738,-0.329283456170848,-20.0,-595.10732
282,9.477282181640785,-1.0924800878193306,10.149429854097578,-0.3821230324197872,-20.0,-595.10732
283,9.510889565263623,-0.29768684310001303,10.183037237720416,-0.5556640350708698,-20.0,-595.10732
284,9.544496948886463,0.7219289926235984,10.216644621343256,-0.8464109003405441,-20.0,-595.10732
285,9.578104332509303,1.7316442726346573,10.250252004966097,-1.1530063666192927,-20.0,-595.10732
286,9.611711716132143,2.4893329831488216,10.283859388588937,-1.319627669755273,-20.0,-595.10732
287,9.645319099754982,2.8256698009166894,10.317466772211775,-1.2126934901759672,-20.0,-595.10732
288,9.678926483377822,2.6969780653479525,10.351074155834615,-0.7954499147753865,-20.0,-595.10732
289,9.712533867000662,2.1926601607890315,10.384681539457455,-0.16124277560153183,-20.0,-595.10732
290,9.746141250623502,1.492265133256089,10.418288923080295,0.4963770965398528,-20.0,-595.10732
291,9.77974863424634,0.7902454327852796,10.451896306703134,0.9656996217259435,-20.0,-595.10732
292,9.81335601786918,0.22521842867640762,10.485503690325974,1.1102478793213266,-20.0,-595.10732
293,9.84696340149202,-0.1528318804376876,10.519111073948814,0.9256523158481037,-20.0,-595.10732
294,9.88057078511486,-0.36946113429771893,10.552718457571654,0.5326568195457828,-20.0,-595.10732
295,9.914178168737699,-0.4863856986977262,10.586325841194492,0.113217662679032,-20.0,-595.10732
296,9.94778555236054,-0.5641124318376252,10.619933224817332,-0.17602596302851128,-20.0,-595.10732
297,9.98139293598338,-0.6422859682574311,10.653540608440172,-0.27115601514965426,-20.0,-595.10732
298,10.01500031960622,-0.7356698581772475,10.687147992063013,-0.21957403344207613,-20.0,-595.10732
299,10.048607703229058,-0.8367366872042062,10.720755375685851,-0.1433804795587047,-20.0,-595.10732
300,10.082215086851898,-0.9208730976574674,10.754362759308691,-0.16578492492766445,-20.0,-595.10732
301,10.115822470474738,-0.9568668191406333,10.787970142931531,-0.33613821211608946,-20.0,-595.10732
302,10.149429854097578,-0.9242471730785096,10.821577526554371,-0.592037766609756,-20.0,-595.10732
303,10.183037237720416,-0.8299402480794239,10.85518491017721,-0.7818162417014061,-20.0,-595.10732
304,10.216644621343256,-0.7096939964896034,10.88879229380005,-0.7413438566237773,-20.0,-595.10732
305,10.250252004966097,-0.6064216229279087,10.92239967742289,-0.3882292421297491,-20.0,-595.10732
306,10.283859388588937,-0.5363816099587972,10.95600706104573,0.2180386005488867,-20.0,-595.10732
307,10.317466772211775,-0.46837726699028914,8.536275440201273,-0.8840143793553534,53.0,1577.034398
308,10.351074155834615,-0.33621362667306287,8.536275440201273,-0.8840143793553534,54.0,1606.7897639999999
309,10.384681539457455,-0.08220160015632359,8.569882823824113,-0.6777025156077063,54.0,1606.7897639999999
310,10.418288923080295,0.2945860500864423,8.603490207446953,-0.19286076489749515,54.0,1606.7897639999999
311,10.451896306703134,0.7193291241501518,11.124043979159927,0.7710669357196833,-20.0,-595.10732
312,10.485503690325974,1.0692970407988895,11.157651362782767,0.20085659909810216,-20.0,-595.10732
313,10.519111073948814,1.2349147350367646,11.191258746405607,-0.23685364774457,-20.0,-595.10732
314,10.552718457571654,1.1769889311020367,11.224866130028447,-0.4473185754318652,-20.0,-595.10732
315,10.586325841194492,0.9452006186536155,11.258473513651285,-0.4638386330459024,-20.0,-595.10732
316,10.619933224817332,0.6482221223533509,8.80513450918399,0.4068550023208004,54.0,1606.7897639999999
317,10.653540608440172,0.39430524880876755,8.83874189280683,-0.07457354082068236,54.0,1606.7897639999999
318,10.687147992063013,0.2356658947454982,8.87234927642967,-0.3767528608069664,54.0,1606.7897639999999
319,10.720755375685851,0.14640016396136296,8.90595666005251,-0.46757655846396284,54.0,1606.7897639999999
320,10.754362759308691,0.04541720165935408,11.426510431765484,-0.9648548711379233,-20.0,-595.10732
321,10.787970142931531,-0.14927766922243949,11.460117815388324,-0.9042456344712219,-20.0,-595.10732
322,10.821577526554371,-0.46621331415565054,11.493725199011164,-0.538828114052684,-20.0,-595.10732
323,10.85518491017721,-0.8551302407436511,11.527332582634003,0.07101344358575393,-20.0,-595.10732
324,10.88879229380005,-1.2017429872895726,11.560939966256843,0.7359242683028434,-20.0,-595.10732
325,10.92239967742289,-1.3744399259908988,11.594547349879683,1.2207373984180245,-20.0,-595.10732
326,10.95600706104573,-1.2830720263187372,11.628154733502523,1.355564331052213,-20.0,-595.10732
327,10.989614444668568,-0.9252272429973428,11.661762117125361,1.1142444269534757,-20.0,-595.10732
328,11.023221828291408,-0.398036955568777,10.351074155834615,-0.7954499147753865,20.0,595.10732
329,11.056829211914248,0.1341204992262636,10.384681539457455,-0.16124277560153183,20.0,595.10732
330,11.090436595537088,0.506030987361555,10.418288923080295,0.4963770965398528,20.0,595.10732
331,11.124043979159927,0.6227719196223591,10.485503690325974,1.1102478793213266,19.0,565.351954
332,11.157651362782767,0.49833706950334644,10.519111073948814,0.9256523158481037,19.0,565.351954
333,11.191258746405607,0.2390037767320088,10.552718457571654,0.5326568195457828,19.0,565.351954
334,11.224866130028447,-0.018244497179063825,10.586325841194494,0.1132176626790167,19.0,565.351954
335,11.258473513651285,-0.17360773184853634,10.619933224817332,-0.17602596302851128,19.0,565.351954
336,11.292080897274126,-0.19949214190644823,10.653540608440172,-0.27115601514965426,19.0,565.351954
337,11.325688280896966,-0.12968035940556003,10.687147992063013,-0.21957403344207613,19.0,565.351954
338,11.359295664519806,-0.019654902251204573,10.720755375685853,-0.1433804795587059,19.0,565.351954
339,11.392903048142644,0.09253439100314385,10.720755375685851,-0.1433804795587047,20.0,595.10732
340,11.426510431765484,0.20350926953747042,10.754362759308691,-0.16578492492766445,20.0,595.10732
341,11.460117815388324,0.3353886239790585,10.787970142931531,-0.33613821211608946,20.0,595.10732
342,11.493725199011164,0.5097021268311568,10.821577526554371,-0.592037766609756,20.0,595.10732
343,11.527332582634003,0.7208564460879003,10.85518491017721,-0.7818162417014061,20.0,595.10732
344,11.560939966256843,0.9255381765988234,10.88879229380005,-0.7413438566237773,20.0,595.10732
345,11.594547349879683,1.0569103674071323,10.92239967742289,-0.3882292421297491,20.0,595.10732
346,11.628154733502523,1.058130512089945,10.95600706104573,0.2180386005488867,20.0,595.10732
347,11.661762117125361,0.9154902049590908,10.989614444668568,0.8874500920102957,20.0,595.10732
348,11.695369500748201,0.6689302790584551,11.594547349879683,1.2207373984180245,3.0,89.266098
349,11.728976884371042,0.39197205920976774,11.628154733502523,1.355564331052213,3.0,89.266098
350,11.762584267993882,0.15432648056880127,10.720755375685853,-0.1433804795587059,31.0,922.416346
351,11.79619165161672,-0.009369532202783708,10.754362759308691,-0.16578492492766445,31.0,922.416346
352,11.82979903523956,-0.10924703591698084,11.728976884371042,0.07346840433753178,3.0,89.266098
353,11.8634064188624,-0.18828898699062693,11.762584267993882,-0.33736203468447673,3.0,89.266098
354,11.89701380248524,-0.29822409580001114,11.796191651616722,-0.5265905137757186,3.0,89.266098
355,11.930621186108079,-0.47452837421629895,11.82979903523956,-0.5304380828994082,3.0,89.266098
356,11.964228569730919,-0.7200988914264476,11.8634064188624,-0.4717602673420467,3.0,89.266098
357,11.997835953353759,-1.0024431225502848,11.89701380248524,-0.48438822027739065,3.0,89.266098
358,12.031443336976599,-1.2626743268273937,11.93062118610808,-0.6354651005741451,3.0,89.266098
359,12.065050720599437,-1.4314105330278812,11.964228569730919,-0.882490888130095,3.0,89.266098
360,12.098658104222277,-1.44870530036103,11.997835953353759,-1.0868490465328275,3.0,89.266098
361,12.132265487845117,-1.2862039314465508,12.636376242187712,-1.1557557870467334,-15.0,-446.33049
362,12.165872871467958,-0.9646329416479704,12.669983625810552,-0.8264168390231675,-15.0,-446.33049
363,12.199480255090796,-0.5544027970616638,12.70359100943339,-0.1986412363574429,-15.0,-446.33049
364,12.233087638713636,-0.15237142205142346,12.73719839305623,0.554617489340052,-15.0,-446.33049
365,12.266695022336476,0.15648444292308633,12.77080577667907,1.1928562318489964,-15.0,-446.33049
366,12.300302405959316,0.33188467129955235,12.80441316030191,1.5111755760049035,-15.0,-446.33049
367,12.333909789582155,0.38873542317447995,12.838020543924749,1.4285066577557257,-15.0,-446.33049
368,12.367517173204995,0.3830361758315652,12.871627927547589,1.0160543575852228,-15.0,-446.33049
369,12.401124556827835,0.3826929190295568,12.90523531117043,0.4548130801642683,-15.0,-446.33049
370,12.434731940450675,0.43594341498948447,12.93884269479327,-0.05154391484335252,-15.0,-446.33049
371,12.468339324073513,0.5485588879284732,12.972450078416108,-0.3633097722588157,-15.0,-446.33049
372,12.501946707696353,0.6785268919199131,13.006057462038948,-0.45267877345032825,-15.0,-446.33049
373,12.535554091319193,0.7530877359141752,13.039664845661788,-0.3979511595816977,-15.0,-446.33049
374,12.569161474942034,0.7054050156142696,13.073272229284628,-0.33351117394548735,-15.0,-446.33049
375,12.602768858564872,0.5166655705261001,13.106879612907466,-0.3803946052259704,-15.0,-446.33049
376,12.636376242187712,0.24015511061197678,13.140486996530306,-0.5858772452473509,-15.0,-446.33049
377,12.669983625810552,-0.012559198202713747,12.569161474942034,-0.8930171446966513,3.0,89.266098
378,12.703591009433392,-0.12265727284823727,12.602768858564874,-1.1470033819651262,3.0,89.266098
379,12.73719839305623,-0.0256688733168201,12.636376242187712,-1.1557557870467334,3.0,89.266098
380,12.77080577667907,0.2539765609921422,12.669983625810552,-0.8264168390231675,3.0,89.266098
381,12.80441316030191,0.6178468792270398,12.703591009433392,-0.1986412363574097,3.0,89.266098
382,12.83802054392475,0.947498138700396,12.737198393056232,0.5546174893400857,3.0,89.266098
383,12.871627927547589,1.1605808459711828,12.77080577667907,1.1928562318489964,3.0,89.266098
384,12.90523531117043,1.232901113648261,12.80441316030191,1.5111755760049035,3.0,89.266098
385,12.93884269479327,1.1787942751051677,12.83802054392475,1.4285066577557213,3.0,89.266098
386,12.97245007841611,1.0146663199435073,12.87162792754759,1.016054357585193,3.0,89.266098
387,13.006057462038948,0.7394404650140999,12.90523531117043,0.4548130801642683,3.0,89.266098
388,13.039664845661788,0.3448306460034076,12.93884269479327,-0.05154391484335252,3.0,89.266098
389,13.073272229284628,-0.16086402127220825,12.97245007841611,-0.3633097722588322,3.0,89.266098
390,13.106879612907468,-0.7412056997937119,13.00605746203895,-0.45267877345032537,3.0,89.266098
391,13.140486996530306,-1.3410434763471097,13.039664845661788,-0.3979511595816977,3.0,89.266098
392,13.174094380153146,-1.903244909815906,13.073272229284628,-0.33351117394548735,3.0,89.266098
393,13.207701763775987,-2.375334485622491,13.106879612907468,-0.3803946052259729,3.0,89.266098
394,13.241309147398827,-2.7041658464996234,13.140486996530308,-0.5858772452473672,3.0,89.266098
395,13.274916531021665,-2.831760618061411,13.174094380153146,-0.8951881624836483,3.0,89.266098
396,13.308523914644505,-2.7046594803027504,13.207701763775987,-1.167537926514695,3.0,89.266098
397,13.342131298267345,-2.295913380419699,13.241309147398827,-1.2337935342340056,3.0,89.266098
398,13.375738681890185,-1.626983453442563,13.274916531021667,-0.975884942342204,3.0,89.266098
399,13.409346065513024,-0.7753590910462826,13.308523914644505,-0.3937614270476156,3.0,89.266098
400,13.442953449135864,0.13882637459511138,13.342131298267345,0.37567692095152316,3.0,89.266098
401,13.476560832758704,0.9839701875121735,13.375738681890185,1.1043589162211378,3.0,89.266098
402,13.510168216381544,1.6542283155934046,13.409346065513025,1.5665782014230243,3.0,89.266098
403,13.543775600004382,2.096178714199094,13.442953449135864,1.634873162317345,3.0,89.266098
404,13.577382983627222,2.311884295210085,13.476560832758704,1.3298869667585658,3.0,89.266098
405,13.610990367250063,2.339136015325579,13.510168216381544,0.8013820543058398,3.0,89.266098
406,13.644597750872903,2.224179107335545,13.543775600004384,0.2544084315236221,3.0,89.266098
407,13.678205134495741,2.0040781992794345,13.577382983627222,-0.1401500389294584,3.0,89.266098
408,13.711812518118581,1.7040891563278724,13.610990367250063,-0.30959535049556824,3.0,89.266098
409,13.745419901741421,1.3430564352487413,13.644597750872903,-0.29445112224445336,3.0,89.266098
410,13.779027285364261,0.938106341045551,13.678205134495743,-0.21490196406006834,3.0,89.266098
411,13.8126346689871,0.5067033789206318,13.711812518118581,-0.2075214713191769,3.0,89.266098
412,13.84624205260994,0.06945471587464833,13.745419901741421,-0.3589937733618579,3.0,89.266098
413,13.87984943623278,-0.3449598646542169,13.779027285364261,-0.6617466737721718,3.0,89.266098
414,13.91345681985562,-0.6971319819656722,13.812634668987101,-1.0084876018970055,3.0,89.266098
415,13.947064203478458,-0.9426409088378891,13.84624205260994,-1.2306953342494205,3.0,89.266098
416,13.980671587101298,-1.0469456949946623,13.87984943623278,-1.1706107152291674,3.0,89.266098
417,14.014278970724138,-1.0027604585665808,13.91345681985562,-0.7596295696006672,3.0,89.266098
418,14.047886354346979,-0.8398674079024444,13.94706420347846,-0.06622107522697172,3.0,89.266098
419,14.081493737969817,-0.6199299966827518,13.947064203478458,-0.06622107522701307,4.0,119.021464
420,14.115101121592657,-0.4157649507966966,13.980671587101298,0.7159691797106139,4.0,119.021464
421,14.148708505215497,-0.2832429977553566,14.047886354346979,1.6175688773581807,3.0,89.266098
422,14.182315888838337,-0.23998378025797515,14.081493737969819,1.48253628460005,3.0,89.266098
423,14.215923272461175,-0.26262879820408674,14.115101121592657,1.0275839643273998,3.0,89.266098
424,14.249530656084016,-0.3037770205353545,14.148708505215497,0.44545511661599524,3.0,89.266098
425,14.283138039706856,-0.31849143970556215,14.182315888838337,-0.05909139534291166,3.0,89.266098
426,14.316745423329696,-0.28637795506707675,14.215923272461177,-0.35403669946913924,3.0,89.266098
427,14.350352806952534,-0.2195390452459848,14.249530656084016,-0.42347608917082097,3.0,89.266098
428,14.383960190575374,-0.15475340103794163,14.283138039706856,-0.3568960269314297,3.0,89.266098
429,14.417567574198214,-0.13473861396189754,14.316745423329696,-0.2954303119637751,3.0,89.266098
430,14.451174957821054,-0.18581604609045113,14.350352806952536,-0.36047904893350385,3.0,89.266098
431,14.484782341443893,-0.2993381657033311,14.383960190575374,-0.5931568499793104,3.0,89.266098
432,14.518389725066733,-0.4247167328642026,14.417567574198214,-0.9278103742332868,3.0,89.266098
433,14.551997108689573,-0.48169061986000994,14.451174957821054,-1.2119703881269535,3.0,89.266098
434,14.585604492312413,-0.39321855939024636,14.484782341443895,-1.2693001884706592,3.0,89.266098
435,14.619211875935251,-0.12683877618872166,14.518389725066733,-0.9832222820065489,3.0,89.266098
436,14.652819259558092,0.27865134956847104,14.551997108689573,-0.3641584823476783,3.0,89.266098
437,14.686426643180932,0.7200382330260725,14.585604492312413,0.43606489523778624,3.0,89.266098
438,14.720034026803772,1.0695241779475047,14.619211875935253,1.1769627332072599,3.0,89.266098
439,14.75364141042661,1.2274126492148212,14.652819259558092,1.6283449675259758,3.0,89.266098
440,14.78724879404945,1.1618246792455076,14.686426643180932,1.6673671985672176,3.0,89.266098
441,14.82085617767229,0.9186856137341507,14.720034026803772,1.3253138597905405,3.0,89.266098
442,14.85446356129513,0.5996181436185395,14.753641410426612,0.7633330880763505,3.0,89.266098
443,14.888070944917969,0.3170976830403468,14.78724879404945,0.19375406681118412,3.0,89.266098
444,14.921678328540809,0.14415560158310733,14.82085617767229,-0.21181890550586152,3.0,89.266098
445,14.955285712163649,0.08039917542691223,14.85446356129513,-0.38601905412068693,3.0,89.266098
446,14.988893095786489,0.0529841976386648,14.88807094491797,-0.3779563411927989,3.0,89.266098
447,15.022500479409327,-0.04369852510509129,14.921678328540809,-0.3155350703036769,3.0,89.266098
448,15.056107863032167,-0.28709391996804084,14.955285712163649,-0.3374582485996837,3.0,89.266098
449,15.089715246655008,-0.6757344872475631,14.988893095786489,-0.5228084148803375,3.0,89.266098
450,15.123322630277848,-1.1166478266498392,15.022500479409329,-0.8456983314605065,3.0,89.266098
451,15.156930013900686,-1.4595133113484344,15.056107863032167,-1.1750414927516384,3.0,89.266098
452,15.190537397523526,-1.5619628252399662,15.089715246655008,-1.324908210683486,3.0,89.266098
453,15.224144781146366,-1.3547214513061836,15.123322630277848,-1.140152872203621,3.0,89.266098
454,15.257752164769206,-0.8759361128887432,15.156930013900688,-0.5814461385633068,3.0,89.266098
455,15.291359548392045,-0.2591772109783177,15.190537397523526,0.2341834798510767,3.0,89.266098
456,15.324966932014885,0.3197666128690482,15.224144781146366,1.0659434615442223,3.0,89.266098
457,15.358574315637725,0.7146991889390941,15.257752164769206,1.64706043379638,3.0,89.266098
458,15.392181699260565,0.8673038743146328,15.291359548392046,1.8013521360077562,3.0,89.266098
459,15.425789082883403,0.8230435632734511,15.324966932014885,1.5181523521293008,3.0,89.266098
460,15.459396466506243,0.6957098673231177,15.358574315637725,0.9475073247912561,3.0,89.266098
461,15.493003850129083,0.600723808627371,15.96350722084884,0.7986130158511798,-14.0,-416.57512399999996
462,15.526611233751924,0.5955170562129914,15.99711460447168,0.16555455166843133,-14.0,-416.57512399999996
463,15.560218617374762,0.6581871383678072,15.459396466506243,-0.37296605490170703,3.0,89.266098
464,15.593826000997602,0.7098682651400522,15.493003850129083,-0.3816814622273473,3.0,89.266098
465,15.627433384620442,0.6622562917297974,15.526611233751924,-0.3125386141480019,3.0,89.266098
466,15.661040768243282,0.4638188739414879,15.560218617374764,-0.32202883479902206,3.0,89.266098
467,15.69464815186612,0.12569930744239297,15.593826000997602,-0.5047627264910938,3.0,89.266098
468,15.72825553548896,-0.2789048877697356,15.627433384620442,-0.8400908673007209,3.0,89.266098
469,15.7618629191118,-0.6388143140613521,15.661040768243282,-1.1914176738609306,3.0,89.266098
470,15.79547030273464,-0.8444449548822732,15.694648151866122,-1.3623311116829542,3.0,89.266098
471,15.82907768635748,-0.8304101021810715,15.72825553548896,-1.1898911543495931,3.0,89.266098
472,15.86268506998032,-0.6041996330440651,15.7618629191118,-0.6344344299915246,3.0,89.266098
473,15.89629245360316,-0.24585080660577338,15.156930013900688,-0.5814461385633068,22.0,654.6180519999999
474,15.929899837226,0.12408126275465113,15.190537397523528,0.23418347985112067,22.0,654.6180519999999
475,15.963507220848838,0.3938465556781209,15.224144781146364,1.0659434615441783,22.0,654.6180519999999
476,15.997114604471678,0.5025945927228423,15.257752164769204,1.6470604337963493,22.0,654.6180519999999
477,16.030721988094516,0.4547944772300003,15.896292453603158,1.6994726925471195,4.0,119.021464
478,16.064329371717356,0.30281259681380573,15.929899837225998,1.3892861398088487,4.0,119.021464
479,16.097936755340196,0.11223806031816388,15.963507220848838,0.7986130158512132,4.0,119.021464
480,16.131544138963037,-0.06721661854931059,15.997114604471678,0.16555455166845615,4.0,119.021464
481,16.165151522585877,-0.21123653558333944,16.03072198809452,-0.30380391795672884,4.0,119.021464
482,16.198758906208717,-0.3143353218797319,16.064329371717356,-0.5198043880094734,4.0,119.021464
483,16.232366289831557,-0.38030946144567784,16.0979367553402,-0.5302994729791367,4.0,119.021464
484,16.265973673454397,-0.4173659351430513,16.131544138963037,-0.47531438896177813,4.0,119.021464
485,16.299581057077233,-0.4343388109615362,16.165151522585873,-0.50168555992827,4.0,119.021464
486,16.333188440700074,-0.43209723243471143,16.198758906208717,-0.6789127108887533,4.0,119.021464
487,16.366795824322914,-0.3939736787996811,16.232366289831553,-0.9550614598016385,4.0,119.021464
488,16.400403207945754,-0.2882242530005336,16.265973673454397,-1.1744916613319951,4.0,119.021464
489,16.434010591568594,-0.08998367260232072,16.299581057077233,-1.1525835915502134,4.0,119.021464
490,16.467617975191434,0.1884905089100607,16.333188440700077,-0.7748173459221213,4.0,119.021464
491,16.501225358814274,0.4840388634415063,16.366795824322914,-0.0710546312556183,4.0,119.021464
492,16.534832742437114,0.7022457774962496,16.400403207945757,0.7771084322729322,4.0,119.021464
493,16.56844012605995,0.7625516926631649,16.434010591568594,1.505811428048081,4.0,119.021464
494,16.60204750968279,0.6403466678851882,16.46761797519143,1.8831328447844724,4.0,119.021464
495,16.63565489330563,0.37912660157739647,16.501225358814274,1.809870573073884,4.0,119.021464
496,16.66926227692847,0.06730930391836633,16.53483274243711,1.3561065259244094,4.0,119.021464
497,16.70286966055131,-0.20304474730852173,17.173373031271066,0.651821785758384,-14.0,-416.57512399999996
498,16.73647704417415,-0.37182345630878033,17.206980414893906,0.08085744704916432,-14.0,-416.57512399999996
499,16.77008442779699,-0.42677385926211797,17.240587798516746,-0.2764933528998616,-14.0,-416.57512399999996
500,16.80369181141983,-0.39918070454396276,16.66926227692847,-0.4013897125882605,4.0,119.021464
501,16.837299195042668,-0.3459023744890082,16.702869660551308,-0.38828444251832456,4.0,119.021464
502,16.870906578665508,-0.3245495692098866,16.73647704417415,-0.3732687189285043,4.0,119.021464
503,16.90451396228835,-0.3669388459614747,16.770084427796988,-0.49307545137605374,4.0,119.021464
504,16.93812134591119,-0.45816479630449786,16.80369181141983,-0.7924991133239168,4.0,119.021464
505,16.97172872953403,-0.5339520260143363,16.837299195042668,-1.1906074098387838,4.0,119.021464
506,17.00533611315687,-0.5071770843580089,16.87090657866551,-1.5061828634809566,4.0,119.021464
507,17.03894349677971,-0.3176956169182117,16.90451396228835,-1.5372392538325772,4.0,119.021464
508,17.07255088040255,0.02267891984931588,16.938121345911192,-1.1630402633692578,4.0,119.021464
509,17.106158264025385,0.42377440330973726,16.97172872953403,-0.41957233217396717,4.0,119.021464
510,17.139765647648225,0.7602039710243721,17.005336113156865,0.4950199964678885,4.0,119.021464
511,17.173373031271066,0.9390616290532638,17.03894349677971,1.2957913621685253,4.0,119.021464
512,17.206980414893906,0.9480122722461779,17.072550880402545,1.7332896948181638,4.0,119.021464
513,17.240587798516746,0.8532821414487302,17.10615826402539,1.700629366163357,4.0,119.021464
514,17.274195182139586,0.7514725384129132,17.139765647648225,1.2711836411826325,4.0,119.021464
515,17.307802565762426,0.7077951944978497,17.17337303127107,0.6518217857583236,4.0,119.021464
516,17.341409949385266,0.7182468288479468,17.206980414893906,0.08085744704916432,4.0,119.021464
517,17.375017333008103,0.7149600367756302,17.240587798516742,-0.2764933528998238,4.0,119.021464
518,17.408624716630943,0.6070069341960775,17.274195182139586,-0.3879267755998698,4.0,119.021464
519,17.442232100253783,0.33093908650336284,17.307802565762422,-0.3477613994812381,4.0,119.021464
520,17.475839483876623,-0.11461163634980223,17.341409949385266,-0.31354914004497575,4.0,119.021464
521,17.509446867499463,-0.6628464357054537,17.375017333008103,-0.4170076371971393,4.0,119.021464
522,17.543054251122303,-1.199336499721836,17.408624716630946,-0.6892920297483724,4.0,119.021464
523,17.576661634745143,-1.5985591480472154,17.442232100253783,-1.034581026364509,4.0,119.021464
524,17.610269018367983,-1.7629938704689587,17.475839483876626,-1.2670961228660622,4.0,119.021464
525,17.64387640199082,-1.6523315219001502,17.509446867499463,-1.1994008942793302,4.0,119.021464
526,17.67748378561366,-1.2938748440380023,17.5430542511223,-0.7431859103777817,4.0,119.021464
527,17.7110911692365,-0.771301690870081,17.576661634745143,0.028548540904305777,4.0,119.021464
528,17.74469855285934,-0.19720573727568502,17.61026901836798,0.8952803181494788,4.0,119.021464
529,17.77830593648218,0.31846891082652506,17.643876401990823,1.5780814752428312,4.0,119.021464
530,17.81191332010502,0.6924509549008117,17.67748378561366,1.8611187849900837,4.0,119.021464
531,17.84552070372786,0.8807778540567998,17.711091169236504,1.683252270673755,4.0,119.021464
532,17.8791280873507,0.8832499408010316,17.74469855285934,1.1545690843364589,4.0,119.021464
533,17.912735470973537,0.7419857130621175,17.778305936482177,0.49468803706509135,4.0,119.021464
534,17.946342854596377,0.5307336328104025,17.81191332010502,-0.07055248711262772,4.0,119.021464
535,17.979950238219217,0.3309630484247771,17.845520703727857,-0.40196350696724986,4.0,119.021464
536,18.013557621842057,0.19933130809696692,17.8791280873507,-0.49012632864839945,4.0,119.021464
537,18.047165005464898,0.1423937398118963,17.912735470973537,-0.4378290460200676,4.0,119.021464
538,18.080772389087738,0.11672294846119313,17.94634285459638,-0.3975471796359893,4.0,119.021464
539,18.114379772710578,0.05975273433594476,17.979950238219217,-0.4938220555583192,4.0,119.021464
540,18.147987156333418,-0.06469017332080582,18.01355762184206,-0.7611464117630619,4.0,119.021464
541,18.181594539956254,-0.2356363998331758,18.047165005464898,-1.1202507127854089,4.0,119.021464
542,18.215201923579095,-0.38113364221036733,18.080772389087734,-1.4035219905481562,4.0,119.021464
543,18.248809307201935,-0.4187384612462644,18.114379772710578,-1.4242604835817179,4.0,119.021464
544,18.282416690824775,-0.3043074855427847,18.147987156333414,-1.065539524077161,4.0,119.021464
545,18.316024074447615,-0.05885669821848592,18.181594539956258,-0.3495237303125387,4.0,119.021464
546,18.349631458070455,0.24021077880203043,18.215201923579095,0.550738353625639,4.0,119.021464
547,18.383238841693295,0.49496340407715733,18.248809307201938,1.3710112233301772,4.0,119.021464
548,18.416846225316135,0.6291937145613794,18.282416690824775,1.86336077000294,4.0,119.021464
549,18.45045360893897,0.6176598760190446,18.31602407444761,1.8993874994569397,4.0,119.021464
550,18.484060992561812,0.49139617552532344,18.349631458070455,1.5179940912656964,4.0,119.021464
551,18.517668376184652,0.31857159175973365,18.38323884169329,0.8968167783391783,4.0,119.021464
552,18.551275759807492,0.17049631313502284,18.416846225316135,0.26655029516962003,4.0,119.021464
553,18.584883143430332,0.0886419283397189,18.45045360893897,-0.1870522653333046,4.0,119.021464
554,18.618490527053172,0.06724052158738658,18.484060992561815,-0.3895738011473253,4.0,119.021464
555,18.652097910676012,0.058067211328630935,18.517668376184652,-0.3900838698541496,4.0,119.021464
556,18.685705294298852,-0.00580866426554575,18.551275759807496,-0.3224796544304457,4.0,119.021464
557,18.71931267792169,-0.17738491193139294,18.584883143430332,-0.33713422198959214,4.0,119.021464
558,18.75292006154453,-0.46612197641337755,18.61849052705317,-0.529644474450657,4.0,119.021464
559,18.78652744516737,-0.8221798655000302,18.652097910676012,-0.891224991830637,4.0,119.021464
560,18.82013482879021,-1.1435818463091678,18.68570529429885,-1.2996022722602012,4.0,119.021464
561,18.85374221241305,-1.3099805351872065,18.719312677921693,-1.5595862934307043,4.0,119.021464
562,18.88734959603589,-1.2338778372154027,18.75292006154453,-1.4854776815942534,4.0,119.021464
563,18.92095697965873,-0.9057525785852685,18.786527445167373,-0.994996521597704,4.0,119.021464
564,18.95456436328157,-0.4065161046806311,18.82013482879021,-0.16873727343832498,4.0,119.021464
565,18.988171746904406,0.1244461467851603,18.853742212413046,0.7633561952156851,4.0,119.021464
566,19.021779130527246,0.5517690109632608,18.85374221241305,0.7633561952157837,5.0,148.77683
567,19.055386514150086,0.803233887511414,18.88734959603589,1.5117372572396255,5.0,148.77683
568,19.088993897772927,0.8922539744348154,18.92095697965873,1.8517274115465199,5.0,148.77683
569,19.122601281395767,0.893107492608993,18.95456436328157,1.718242009643832,5.0,148.77683
570,19.156208665018607,0.8871715871258747,18.98817174690441,1.222907494552671,5.0,148.77683
571,19.189816048641447,0.913289717027543,19.02177913052725,0.5900986664742446,5.0,148.77683
572,19.223423432264287,0.9487387831258632,19.324245583132807,-1.310516478606022,-3.0,-89.266098
573,19.257030815887124,0.9271750582723158,19.357852966755644,-1.421382821822205,-3.0,-89.266098
574,19.290638199509964,0.7800123256918825,19.391460350378484,-1.1485754574322096,-3.0,-89.266098
575,19.324245583132804,0.4774002267801821,19.425067734001324,-0.48883947164702507,-3.0,-89.266098
576,19.357852966755644,0.04762150197359841,19.458675117624164,0.40229618096314784,-3.0,-89.266098
577,19.391460350378484,-0.43241092405231324,19.223423432264287,-0.26805837473966987,5.0,148.77683
578,19.425067734001324,-0.8656967192075986,19.89557110472108,-0.7136356973548956,-14.0,-416.57512399999996
579,19.458675117624164,-1.1646532128991312,19.92917848834392,-1.1350436269355986,-14.0,-416.57512399999996
580,19.492282501247004,-1.270244198465049,19.96278587196676,-1.5214354187915777,-14.0,-416.57512399999996
581,19.52588988486984,-1.1620648698365548,19.996393255589595,-1.6810118751987484,-14.0,-416.57512399999996
582,19.55949726849268,-0.8645848131660033,20.030000639212435,-1.461525255382226,-14.0,-416.57512399999996
583,19.59310465211552,-0.44744229202145563,20.063608022835275,-0.8292857450859835,-14.0,-416.57512399999996
584,19.62671203573836,-0.011592992658444056,20.097215406458115,0.09016050645424022,-14.0,-416.57512399999996
585,19.6603194193612,0.340961706794679,20.130822790080956,1.0410969667844974,-14.0,-416.57512399999996
586,19.69392680298404,0.5425818462950942,20.164430173703796,1.7343413000741226,-14.0,-416.57512399999996
587,19.72753418660688,0.5821091767521402,20.198037557326636,1.9688624386038645,-14.0,-416.57512399999996
588,19.76114157022972,0.5019745438400107,20.231644940949476,1.7163703971844855,-14.0,-416.57512399999996
589,19.794748953852558,0.37263374086383966,20.265252324572312,1.1250772645690983,-14.0,-416.57512399999996
590,19.828356337475398,0.2572168869811079,20.298859708195153,0.44333706091924074,-14.0,-416.57512399999996
591,19.86196372109824,0.1822472211745799,19.69392680298404,-0.1502400248042071,5.0,148.77683
592,19.89557110472108,0.12735166642158974,19.72753418660688,-0.3908385714100394,5.0,148.77683
593,19.92917848834392,0.039449572824477516,19.76114157022972,-0.41253298244272474,5.0,148.77683
594,19.96278587196676,-0.1334879360512753,19.79474895385256,-0.33230871396039047,5.0,148.77683
595,19.9963932555896,-0.4038669457148456,19.8283563374754,-0.29478061293595453,5.0,148.77683
596,20.03000063921244,-0.7210026567476213,19.861963721098242,-0.4111664683511323,5.0,148.77683
597,20.063608022835275,-0.9789968835512569,19.929178488343915,-1.135043626935554,4.0,119.021464
598,20.097215406458115,-1.057867320111358,19.96278587196676,-1.5214354187915777,4.0,119.021464
599,20.130822790080956,-0.8802933559675086,19.996393255589595,-1.6810118751987484,4.0,119.021464
600,20.164430173703796,-0.45381183539419806,20.03000063921244,-1.461525255382203,4.0,119.021464
601,20.198037557326636,0.1265698176254823,20.063608022835275,-0.8292857450859835,4.0,119.021464
602,20.231644940949476,0.7176120201504037,20.09721540645812,0.09016050645434075,4.0,119.021464
603,20.265252324572316,1.1853666748202252,20.130822790080956,1.0410969667844974,4.0,119.021464
604,20.298859708195156,1.4486658250280648,20.1644301737038,1.7343413000741474,4.0,119.021464
605,20.332467091817993,1.4909098724916896,20.198037557326636,1.9688624386038645,4.0,119.021464
606,20.366074475440833,1.3454203744617232,20.231644940949472,1.7163703971845121,4.0,119.021464
607,20.399681859063673,1.0711608774010621,20.265252324572316,1.1250772645690357,4.0,119.021464
608,20.433289242686513,0.731741217222801,20.298859708195153,0.44333706091924074,4.0,119.021464
609,20.466896626309353,0.38159791388690584,20.332467091817996,-0.09440572049765349,4.0,119.021464
610,20.500504009932193,0.05822802042101177,20.366074475440833,-0.36248110810716067,4.0,119.021464
611,20.534111393555033,-0.2210377130990003,20.399681859063676,-0.3794239078741132,4.0,119.021464
612,20.567718777177873,-0.4581355500049771,20.433289242686513,-0.27654914577918965,4.0,119.021464
613,20.60132616080071,-0.6688022487164389,20.46689662630935,-0.22162416665720155,4.0,119.021464
614,20.63493354442355,-0.8718713328051859,20.500504009932193,-0.33376113921133815,4.0,119.021464
615,20.66854092804639,-1.0741623377727247,21.139044298766144,-0.6954478111847096,-14.0,-416.57512399999996
616,20.70214831166923,-1.2561849282925963,21.172651682388985,-1.0442545570715536,-14.0,-416.57512399999996
617,20.73575569529207,-1.3688023145408994,21.206259066011825,-1.3357281451670715,-14.0,-416.57512399999996
618,20.76936307891491,-1.349598975611607,21.239866449634665,-1.3750467532498882,-14.0,-416.57512399999996
619,20.80297046253775,-1.1555512360504412,21.273473833257505,-1.033484391811298,-14.0,-416.57512399999996
620,20.83657784616059,-0.7931989693141136,21.307081216880345,-0.32479938739667663,-14.0,-416.57512399999996
621,20.870185229783427,-0.3248624408377822,21.34068860050318,0.5784115888560968,-14.0,-416.57512399999996
622,20.903792613406267,0.1545336190795819,21.37429598412602,1.4049471187457425,-14.0,-416.57512399999996
623,20.937399997029107,0.5549876072250124,21.40790336774886,1.8975769793775574,-14.0,-416.57512399999996
624,20.971007380651947,0.8217427862695297,21.441510751371702,1.9225085953089298,-14.0,-416.57512399999996
625,21.004614764274788,0.9462723451996075,21.475118134994542,1.520393547154485,-14.0,-416.57512399999996
626,21.038222147897628,0.9587427486513637,21.508725518617382,0.8758855283136371,-14.0,-416.57512399999996
627,21.071829531520468,0.9093054781551272,21.542332902240222,0.22627874799949577,-14.0,-416.57512399999996
628,21.105436915143308,0.8460439100922456,21.575940285863062,-0.24213144017400778,-14.0,-416.57512399999996
629,21.139044298766144,0.7964283373898962,21.6095476694859,-0.4619107668810628,-14.0,-416.57512399999996
630,21.172651682388985,0.7580001575790158,21.64315505310874,-0.4919417861507317,-14.0,-416.57512399999996
631,21.206259066011825,0.7014180889978169,21.67676243673158,-0.46950663001103,-14.0,-416.57512399999996
632,21.239866449634665,0.5853251308248386,21.71036982035442,-0.5332544218658897,-14.0,-416.57512399999996
633,21.273473833257505,0.37893839116233374,21.74397720397726,-0.7505022495364363,-14.0,-416.57512399999996
634,21.307081216880345,0.0845168334577729,21.7775845876001,-1.0777242939285303,-14.0,-416.57512399999996
635,21.340688600503185,-0.25148664141140936,21.81119197122294,-1.371042174076408,-14.0,-416.57512399999996
636,21.374295984126025,-0.5483598829218876,21.84479935484578,-1.4463472222419613,-14.0,-416.57512399999996
637,21.40790336774886,-0.7220843142800549,21.878406738468616,-1.1681126425460326,-14.0,-416.57512399999996
638,21.441510751371702,-0.7234318306972292,21.912014122091456,-0.5281683166534913,-14.0,-416.57512399999996
639,21.475118134994542,-0.5625349994178317,21.945621505714296,0.3275787848769397,-14.0,-416.57512399999996
640,21.508725518617382,-0.3059306551661902,21.979228889337136,1.146228394496524,-14.0,-416.57512399999996
641,21.542332902240222,-0.04755704645849019,22.012836272959976,1.6722848718248038,-14.0,-416.57512399999996
642,21.575940285863062,0.13085613159466225,22.046443656582817,1.7586604122305474,-14.0,-416.57512399999996
643,21.609547669485902,0.1892329298677954,22.080051040205657,1.426986194816535,-14.0,-416.57512399999996
644,21.643155053108742,0.13302125747013058,22.113658423828497,0.8468910057856758,-14.0,-416.57512399999996
645,21.67676243673158,-0.008884061283294265,22.147265807451333,0.24767163061272568,-14.0,-416.57512399999996
646,21.71036982035442,-0.2144498019120008,22.180873191074173,-0.18986467081945688,-14.0,-416.57512399999996
647,21.74397720397726,-0.48169385426385103,22.214480574697014,-0.4065182796380685,-14.0,-416.57512399999996
648,21.7775845876001,-0.8119571449429115,22.248087958319854,-0.46911542153267377,-14.0,-416.57512399999996
649,21.81119197122294,-1.175770906665574,22.281695341942694,-0.5090375472806702,-14.0,-416.57512399999996
650,21.84479935484578,-1.4907938231103806,22.315302725565534,-0.6308004867007782,-14.0,-416.57512399999996
651,21.87840673846862,-1.634794857603675,22.348910109188374,-0.8408545878825316,-14.0,-416.57512399999996
652,21.91201412209146,-1.4921924522192407,22.382517492811214,-1.0356650211149696,-14.0,-416.57512399999996
653,21.9456215057143,-1.010090346550224,22.416124876434054,-1.0566453820407151,-14.0,-416.57512399999996
654,21.979228889337136,-0.2341009007758572,22.44973226005689,-0.7827316399162508,-14.0,-416.57512399999996
655,22.012836272959976,0.6945036169103267,22.48333964367973,-0.20916076157073893,-14.0,-416.57512399999996
656,22.046443656582817,1.5796416874783812,22.51694702730257,0.5322123198157263,-14.0,-416.57512399999996
657,22.080051040205657,2.231438385094488,22.55055441092541,1.2225463385220667,-14.0,-416.57512399999996
658,22.113658423828497,2.52248698916948,22.58416179454825,1.648486361544162,-14.0,-416.57512399999996
659,22.147265807451337,2.4201794246070865,22.61776917817109,1.6902403699548387,-14.0,-416.57512399999996
660,22.180873191074177,1.9884296979464158,22.65137656179393,1.3649674226462434,-14.0,-416.57512399999996
661,22.214480574697017,1.3623220022857367,22.68498394541677,0.8102212263667445,-14.0,-416.57512399999996
662,22.248087958319854,0.7045350976459681,22.718591329039608,0.21988720461735145,-14.0,-416.57512399999996
663,22.281695341942694,0.15603015723711047,22.718591329039608,0.21988720461735145,-13.0,-386.819758
664,22.315302725565534,-0.20388118236382047,22.752198712662448,-0.23677206505932136,-13.0,-386.819758
665,22.348910109188374,-0.37491092255001685,22.785806096285288,-0.4788872069564112,-13.0,-386.819758
666,22.382517492811214,-0.42517501599999613,22.81941347990813,-0.5361190817449691,-13.0,-386.819758
667,22.416124876434054,-0.4567298143186632,22.85302086353097,-0.5219194154202245,-13.0,-386.819758
668,22.449732260056894,-0.5585945844397134,22.88662824715381,-0.5694701229542426,-13.0,-386.819758
669,22.483339643679734,-0.7630571954791487,22.92023563077665,-0.7570786994080976,-13.0,-386.819758
670,22.51694702730257,-1.0236924269064915,22.953843014399485,-1.0566370213378224,-13.0,-386.819758
671,22.55055441092541,-1.2307805538751837,22.987450398022325,-1.3328566716442927,-13.0,-386.819758
672,22.58416179454825,-1.2651376670147594,23.021057781645165,-1.400902654757378,-13.0,-386.819758
673,22.61776917817109,-1.0667908125340004,23.054665165268005,-1.1210221357470205,-13.0,-386.819758
674,22.65137656179393,-0.6778159855617459,23.088272548890846,-0.4844185031381468,-13.0,-386.819758
675,22.68498394541677,-0.2282776755448647,23.121879932513686,0.35833280744723384,-13.0,-386.819758
676,22.71859132903961,0.13026627427726276,23.155487316136526,1.1488353538137985,-13.0,-386.819758
677,22.75219871266245,0.3029265298279826,23.189094699759366,1.631090701344281,-13.0,-386.819758
678,22.785806096285288,0.2924006864094753,23.222702083382202,1.664554579126021,-13.0,-386.819758
679,22.81941347990813,0.18062676207270315,22.113658423828497,0.8468910057856758,21.0,624.8626859999999
680,22.85302086353097,0.06951000823608663,22.147265807451337,0.24767163061266226,21.0,624.8626859999999
681,22.88662824715381,0.02216816021951258,22.180873191074177,-0.1898646708195031,21.0,624.8626859999999
682,22.92023563077665,0.03816318265383875,22.214480574697017,-0.40651827963809145,21.0,624.8626859999999
683,22.95384301439949,0.06899332930559177,22.248087958319857,-0.469115421532678,21.0,624.8626859999999
684,22.98745039802233,0.056706751601719375,22.281695341942697,-0.5090375472806831,21.0,624.8626859999999
685,23.02105778164517,-0.02812735050967835,22.315302725565537,-0.6308004867008004,21.0,624.8626859999999
686,23.054665165268005,-0.16619062884864277,22.348910109188374,-0.8408545878825316,21.0,624.8626859999999
687,23.088272548890846,-0.2938094534418123,22.382517492811214,-1.0356650211149696,21.0,624.8626859999999
688,23.121879932513686,-0.33000969844347927,22.416124876434054,-1.0566453820407151,21.0,624.8626859999999
689,23.155487316136526,-0.21622747126254785,22.449732260056894,-0.7827316399162219,21.0,624.8626859999999
690,23.189094699759366,0.048750556619361736,22.483339643679734,-0.20916076157067828,21.0,624.8626859999999
691,23.222702083382206,0.39810412445260046,23.08827254889085,-0.48441850313805773,4.0,119.021464
692,23.256309467005046,0.720444720145425,23.121879932513686,0.35833280744723384,4.0,119.021464
693,23.289916850627886,0.9081912032543806,23.15548731613653,1.1488353538138496,4.0,119.021464
694,23.323524234250723,0.9058410216464693,23.189094699759366,1.631090701344281,4.0,119.021464
695,23.357131617873563,0.7324562938015835,23.222702083382202,1.664554579126021,4.0,119.021464
696,23.390739001496403,0.46728528931444396,23.256309467005046,1.2819312917942391,4.0,119.021464
697,23.424346385119243,0.2079182630776933,23.323524234250723,0.05177224051969939,3.0,89.266098
698,23.457953768742083,0.02443889251229756,23.357131617873563,-0.3682285646656203,3.0,89.266098
699,23.491561152364923,-0.0675722378350144,23.390739001496403,-0.5338168601721305,3.0,89.266098
700,23.525168535987763,-0.10518230138840726,23.390739001496407,-0.5338168601721289,4.0,119.021464
701,23.558775919610603,-0.1519929854132703,23.424346385119243,-0.5186395182711018,4.0,119.021464
702,23.59238330323344,-0.2613606613459702,23.45795376874208,-0.4732582156325885,4.0,119.021464
703,23.62599068685628,-0.4453307729730296,23.491561152364923,-0.5304669174494326,4.0,119.021464
704,23.65959807047912,-0.6628081695191647,23.52516853598776,-0.7222162142855384,4.0,119.021464
705,23.69320545410196,-0.8325305044513147,23.558775919610603,-0.9516878832811188,4.0,119.021464
706,23.7268128377248,-0.8664068302931602,23.59238330323344,-1.038585803034907,4.0,119.021464
707,23.76042022134764,-0.710289354571282,23.625990686856284,-0.8186238081367178,4.0,119.021464
708,23.79402760497048,-0.3745412210799838,23.65959807047912,-0.24660436683039003,4.0,119.021464
709,23.82763498859332,0.06139687633496073,23.693205454101964,0.554981344495351,4.0,119.021464
710,23.861242372216157,0.47604195938686006,23.7268128377248,1.3343941097559873,4.0,119.021464
711,23.894849755838997,0.7547121810771237,23.760420221347637,1.8210328355485752,4.0,119.021464
712,23.928457139461837,0.8376074004451134,23.79402760497048,1.8506478933928665,4.0,119.021464
713,23.962064523084678,0.7425541481484427,23.827634988593317,1.4388749826202467,4.0,119.021464
714,23.995671906707518,0.5497736571232118,23.86124237221616,0.7659552546562672,4.0,119.021464
715,24.029279290330358,0.35638359486139504,23.894849755838997,0.08447123742523904,4.0,119.021464
716,24.062886673953198,0.22544235419867334,24.499782661050112,-0.3194208221648419,-13.0,-386.819758
717,24.096494057576038,0.15766584309228135,24.533390044672952,-0.6161268606890455,-13.0,-386.819758
718,24.130101441198875,0.10066084204262242,24.56699742829579,-0.6871856592858152,-13.0,-386.819758
719,24.163708824821715,-0.011642782832010095,24.60060481191863,-0.6787944760671929,-13.0,-386.819758
720,24.197316208444555,-0.21318205227124548,24.062886673953194,-0.660857937641275,4.0,119.021464
721,24.230923592067395,-0.4781868038454548,24.096494057576038,-0.8841316266923283,4.0,119.021464
722,24.264530975690235,-0.7245646464763323,24.130101441198875,-1.1678378585007936,4.0,119.021464
723,24.298138359313075,-0.8466478116729722,24.16370882482172,-1.3240995266366662,4.0,119.021464
724,24.331745742935915,-0.7641828135708308,24.197316208444555,-1.1661201619728558,4.0,119.021464
725,24.365353126558755,-0.4659731938366875,24.2309235920674,-0.6183739147893743,4.0,119.021464
726,24.398960510181592,-0.025373039252819776,24.264530975690235,0.2207941433807848,4.0,119.021464
727,24.432567893804432,0.42331042580098405,24.29813835931307,1.1032335787824208,4.0,119.021464
728,24.466175277427272,0.7377042279212074,24.331745742935915,1.7353603841708753,4.0,119.021464
729,24.499782661050112,0.8240043178792051,24.36535312655875,1.9107110510813476,4.0,119.021464
730,24.533390044672952,0.6709421238025953,24.970286031769866,1.8813615607594973,-13.0,-386.819758
731,24.566997428295792,0.3467705366508295,24.432567893804432,0.9608772736474334,4.0,119.021464
732,24.600604811918632,-0.03766226484011841,24.466175277427276,0.24333876218721806,4.0,119.021464
733,24.634212195541473,-0.38067203356076534,24.499782661050112,-0.3194208221648419,4.0,119.021464
734,24.66781957916431,-0.6293971422805991,24.53339004467295,-0.6161268606890142,4.0,119.021464
735,24.70142696278715,-0.7873016033471864,24.566997428295792,-0.6871856592858228,4.0,119.021464
736,24.73503434640999,-0.8890165886819056,25.171930333506904,-0.4179803753504751,-13.0,-386.819758
737,24.76864173003283,-0.9612420108829677,25.205537717129744,-0.44092691684312296,-13.0,-386.819758
738,24.80224911365567,-0.99471307959002,24.66781957916431,-0.9631282872486768,4.0,119.021464
739,24.83585649727851,-0.9434882315342867,24.701426962787153,-1.260363452932311,4.0,119.021464
740,24.86946388090135,-0.7511698047084945,24.73503434640999,-1.4623153747187163,4.0,119.021464
741,24.90307126452419,-0.38878542170867453,24.768641730032833,-1.3709929315114742,4.0,119.021464
742,24.936678648147026,0.11729567710472995,24.76864173003283,-1.3709929315115261,5.0,148.77683
743,24.970286031769866,0.6841279227180197,24.80224911365567,-0.8795809685406463,5.0,148.77683
744,25.003893415392707,1.1994920908289772,24.83585649727851,-0.04819256084059493,5.0,148.77683
745,25.037500799015547,1.5627721303628763,24.86946388090135,0.9010824484381563,5.0,148.77683
746,25.071108182638387,1.7177627580085133,24.90307126452419,1.672578747238751,5.0,148.77683
747,25.104715566261227,1.663623575427009,24.93667864814703,2.026142074730404,5.0,148.77683
748,25.138322949884067,1.4442166519922386,24.97028603176987,1.8813615607594407,5.0,148.77683
749,25.171930333506907,1.1252944111645906,25.00389341539271,1.3449892927468436,5.0,148.77683
750,25.205537717129744,0.7704034129848317,25.037500799015547,0.6509383820442803,5.0,148.77683
751,25.239145100752584,0.42349182574598704,25.071108182638387,0.04688584172197838,5.0,148.77683
752,25.272752484375424,0.1021902025658905,25.104715566261227,-0.31464824330966157,5.0,148.77683
753,25.306359867998264,-0.19818248168070982,25.138322949884067,-0.4294659402799424,5.0,148.77683
754,25.339967251621104,-0.49238369562359663,25.171930333506907,-0.4179803753504739,5.0,148.77683
755,25.373574635243944,-0.7878776916707694,25.205537717129747,-0.44092691684313967,5.0,148.77683
756,25.407182018866784,-1.0664340259018399,25.239145100752587,-0.5987370595644262,5.0,148.77683
757,25.440789402489624,-1.2728495790915206,25.272752484375427,-0.8660947598321118,5.0,148.77683
758,25.47439678611246,-1.3228592935126458,25.306359867998264,-1.0968317257488096,5.0,148.77683
759,25.5080041697353,-1.137672544936517,25.339967251621104,-1.100177323539312,5.0,148.77683
760,25.54161155335814,-0.6959955673428585,25.373574635243944,-0.7515847959761652,5.0,148.77683
761,25.57521893698098,-0.07496110813377395,25.407182018866784,-0.0788786197839003,5.0,148.77683
762,25.60882632060382,0.5539238072461803,25.440789402489624,0.7273240016803828,5.0,148.77683
763,25.64243370422666,0.9873304142181778,25.474396786112464,1.3907748715765607,5.0,148.77683
764,25.6760410878495,1.0855733809169485,25.508004169735305,1.676337245252415,5.0,148.77683
765,25.70964847147234,0.8450416093413777,25.541611553358145,1.4987231319972765,5.0,148.77683
766,25.743255855095178,0.39892056087006483,25.57521893698098,0.9559457097732829,5.0,148.77683
767,25.77686323871802,-0.057068927050308416,25.60882632060382,0.27326955177105394,5.0,148.77683
768,25.81047062234086,-0.3682090555713486,25.64243370422666,-0.30857267853813886,5.0,148.77683
769,25.8440780059637,-0.49302911863233645,25.6760410878495,-0.641737734353641,5.0,148.77683
770,25.87768538958654,-0.5081368823091057,25.70964847147234,-0.7244442428495446,5.0,148.77683
771,25.91129277320938,-0.5490935459340104,25.407182018866784,-0.0788786197839003,15.0,446.33049
772,25.94490015683222,-0.7215543275999533,25.440789402489624,0.7273240016803828,15.0,446.33049
773,25.97850754045506,-1.0294482079841498,25.474396786112464,1.3907748715765607,15.0,446.33049
774,26.012114924077895,-1.359435025467273,25.5080041697353,1.6763372452524339,15.0,446.33049
775,26.045722307700736,-1.5341977915683966,25.54161155335814,1.4987231319973338,15.0,446.33049
776,26.079329691323576,-1.4097833045270878,25.57521893698098,0.9559457097732829,15.0,446.33049
777,26.112937074946416,-0.9631308116161955,25.60882632060382,0.27326955177105394,15.0,446.33049
778,26.146544458569256,-0.3162330969447441,25.373574635243944,-0.7515847959761652,23.0,684.373418
779,26.180151842192096,0.3213378270335698,25.071108182638387,0.04688584172197838,33.0,981.9270779999999
780,26.213759225814936,0.7596320737592874,25.104715566261227,-0.31464824330966157,33.0,981.9270779999999
781,26.247366609437776,0.921953090493388,25.138322949884067,-0.4294659402799424,33.0,981.9270779999999
782,26.280973993060613,0.8709944657622648,25.171930333506904,-0.4179803753504751,33.0,981.9270779999999
783,26.314581376683453,0.7571482338292668,25.205537717129744,-0.44092691684312296,33.0,981.9270779999999
784,26.348188760306293,0.7256545702986946,25.239145100752584,-0.5987370595643979,33.0,981.9270779999999
785,26.381796143929133,0.8381143363034743,25.272752484375424,-0.8660947598320874,33.0,981.9270779999999
786,26.415403527551973,1.0470247537292254,25.272752484375424,-0.8660947598320874,34.0,1011.6824439999999
787,26.449010911174813,1.2277254297327493,25.306359867998264,-1.0968317257488096,34.0,1011.6824439999999
788,26.482618294797653,1.2440511514531147,25.339967251621104,-1.100177323539312,34.0,1011.6824439999999
789,26.516225678420493,1.0140869516610995,25.373574635243944,-0.7515847959761652,34.0,1011.6824439999999
790,26.54983306204333,0.5497758437624283,25.40718201886678,-0.07887861978397148,34.0,1011.6824439999999
791,26.58344044566617,-0.04051899224184297,25.44078940248962,0.7273240016802975,34.0,1011.6824439999999
792,26.61704782928901,-0.5845839759575097,25.47439678611246,1.3907748715765305,34.0,1011.6824439999999
793,26.65065521291185,-0.9044371328766031,25.5080041697353,1.6763372452524339,34.0,1011.6824439999999
794,26.68426259653469,-0.8826972924561592,25.54161155335814,1.4987231319973338,34.0,1011.6824439999999
795,26.71786998015753,-0.5118423246814164,25.57521893698098,0.9559457097732829,34.0,1011.6824439999999
796,26.75147736378037,0.09873974282596741,25.60882632060382,0.27326955177105394,34.0,1011.6824439999999
797,26.78508474740321,0.7659729174923131,25.64243370422666,-0.30857267853813886,34.0,1011.6824439999999
798,26.818692131026047,1.3067910238429241,25.676041087849498,-0.6417377343536058,34.0,1011.6824439999999
799,26.852299514648887,1.6033049504196477,25.709648471472338,-0.7244442428495358,34.0,1011.6824439999999
800,26.885906898271728,1.626373629713958,25.743255855095178,-0.6784851300613367,34.0,1011.6824439999999
801,26.919514281894568,1.4127540114055506,25.77686323871802,-0.6674898841468949,34.0,1011.6824439999999
802,26.953121665517408,1.0207391637075596,25.81047062234086,-0.79833857053,34.0,1011.6824439999999
803,26.986729049140248,0.49876997851323174,25.8440780059637,-1.0543196583346375,34.0,1011.6824439999999
804,27.020336432763088,-0.11485740548674121,25.87768538958654,-1.294027724253472,34.0,1011.6824439999999
805,27.053943816385928,-0.7708485098924593,25.94490015683222,-0.9861856574284631,33.0,981.9270779999999
806,27.087551200008765,-1.3923288214211664,25.978507540455055,-0.2907110572765217,33.0,981.9270779999999
807,27.121158583631605,-1.8819351995513431,26.012114924077895,0.5992244723954946,33.0,981.9270779999999
808,27.154765967254445,-2.150345710037742,26.045722307700736,1.4084720437378537,33.0,981.9270779999999
809,27.188373350877285,-2.148213736801645,26.079329691323576,1.8740511465083336,33.0,981.9270779999999
810,27.221980734500125,-1.8852003985613965,26.112937074946416,1.8624216063256611,33.0,981.9270779999999
811,27.255588118122965,-1.4316990782944932,26.146544458569256,1.4237052443505165,33.0,981.9270779999999
812,27.289195501745805,-0.9049482597934623,26.180151842192096,0.757945701315543,33.0,981.9270779999999
813,27.322802885368645,-0.4387777796810187,26.213759225814936,0.11519909165381095,33.0,981.9270779999999
814,27.356410268991482,-0.13816645565242486,26.247366609437773,-0.31769377744940774,33.0,981.9270779999999
815,27.390017652614322,-0.03305291763449633,26.247366609437773,-0.31769377744940774,34.0,1011.6824439999999
816,27.423625036237162,-0.057979497147168976,26.280973993060613,-0.48940944775230194,34.0,1011.6824439999999
817,27.457232419860002,-0.07819314311571034,26.314581376683453,-0.48547432166164306,34.0,1011.6824439999999
818,27.490839803482842,0.04166369593207726,26.348188760306293,-0.46330525970275693,34.0,1011.6824439999999
819,27.524447187105682,0.3571368920714827,26.381796143929133,-0.5551165077819361,34.0,1011.6824439999999
820,27.558054570728522,0.7949967264728537,26.415403527551973,-0.7865110067709041,34.0,1011.6824439999999
821,27.591661954351363,1.1686079074250235,26.449010911174813,-1.0519410054545424,34.0,1011.6824439999999
822,27.6252693379742,1.2603178339146341,26.48261829479765,-1.1627627143672632,34.0,1011.6824439999999
823,27.65887672159704,0.9356432741880873,26.079329691323576,1.8740511465083336,47.0,1398.502202
824,27.69248410521988,0.22829671558843317,26.112937074946416,1.8624216063256611,47.0,1398.502202
825,27.72609148884272,-0.6582518056067458,26.146544458569256,1.4237052443505165,47.0,1398.502202
826,27.75969887246556,-1.4429347594686601,26.180151842192096,0.757945701315543,47.0,1398.502202
827,27.7933062560884,-1.9042225197656206,26.213759225814936,0.11519909165381095,47.0,1398.502202
828,27.82691363971124,-1.9796428040819385,26.247366609437776,-0.3176937774494535,47.0,1398.502202
829,27.86052102333408,-1.7648780245938513,26.280973993060616,-0.48940944775230155,47.0,1398.502202
830,27.894128406956916,-1.4156645440297932,26.314581376683453,-0.48547432166164306,47.0,1398.502202
831,27.927735790579757,-1.024431055411835,26.314581376683453,-0.48547432166164306,48.0,1428.257568
832,27.961343174202597,-0.5624067621387802,26.348188760306293,-0.46330525970275693,48.0,1428.257568
833,27.994950557825437,0.07221763132904895,26.381796143929133,-0.5551165077819361,48.0,1428.257568
834,28.028557941448277,0.9418001213420405,26.415403527551973,-0.7865110067709041,48.0,1428.257568
835,28.062165325071117,1.98254089631642,26.449010911174813,-1.0519410054545424,48.0,1428.257568
836,28.095772708693957,3.0091450487560625,26.482618294797653,-1.162762714367275,48.0,1428.257568
837,28.129380092316797,3.8026551006951586,26.516225678420493,-0.9478914000268786,48.0,1428.257568
838,28.162987475939634,4.21473090544515,26.54983306204333,-0.3570011282079456,48.0,1428.257568
839,28.196594859562474,4.221092203365847,26.58344044566617,0.49036265706444343,48.0,1428.257568
840,28.230202243185314,3.901066256393666,26.61704782928901,1.3411787872115004,48.0,1428.257568
841,28.263809626808154,3.3689137101481164,26.65065521291185,1.9161867189645387,48.0,1428.257568
842,28.297417010430994,2.7078970482755946,26.68426259653469,2.0332551237282197,48.0,1428.257568
843,28.331024394053834,1.9498604799060706,26.71786998015753,1.683459774102297,48.0,1428.257568
844,28.364631777676674,1.1057710029199814,26.75147736378037,1.0239256630834364,48.0,1428.257568
845,28.398239161299514,0.21118216377071194,26.75147736378037,1.0239256630834364,49.0,1458.0129339999999
846,28.43184654492235,-0.6605181660446909,26.785084747403207,0.2965442508510725,49.0,1458.0129339999999
847,28.46545392854519,-1.4338304137608189,26.818692131026047,-0.28289126555767313,49.0,1458.0129339999999
848,28.49906131216803,-2.086984012120738,26.852299514648887,-0.6116723835364175,49.0,1458.0129339999999
849,28.53266869579087,-2.677037124840058,26.885906898271728,-0.7265920218325266,49.0,1458.0129339999999
850,28.56627607941371,-3.3024788066393747,26.919514281894568,-0.7629704274651382,49.0,1458.0129339999999
851,28.59988346303655,-4.017828715323866,26.953121665517408,-0.8685583363869119,49.0,1458.0129339999999
852,28.63349084665939,-4.7558897877907675,26.986729049140248,-1.1133535937512615,49.0,1458.0129339999999
853,28.66709823028223,-5.318867022631588,27.020336432763088,-1.4393553046871859,49.0,1458.0129339999999
854,28.70070561390507,-5.459638482112065,27.053943816385924,-1.678824399335245,49.0,1458.0129339999999
855,28.73431299752791,-5.011907338297662,27.053943816385924,-1.678824399335245,50.0,1487.7683
856,28.76792038115075,-3.989341179611174,27.087551200008765,-1.6380631420989495,50.0,1487.7683
857,28.80152776477359,-2.5922886376261087,27.121158583631605,-1.2076300641929152,50.0,1487.7683
858,28.83513514839643,-1.1215569228008715,27.154765967254445,-0.4393040188358135,50.0,1487.7683
859,28.86874253201927,0.14784360778541566,27.188373350877285,0.4577013738411988,50.0,1487.7683
860,28.90234991564211,1.0677619289589322,27.221980734500125,1.2051458067315426,50.0,1487.7683
861,28.93595729926495,1.6494847662530556,27.255588118122965,1.5825276575248741,50.0,1487.7683
862,28.969564682887786,2.0195339119215308,27.32280288536864,1.1254929297491099,49.0,1458.0129339999999
863,29.003172066510626,2.325759978798318,27.356410268991482,0.5909341442696433,49.0,1458.0129339999999
864,29.036779450133466,2.6449458918714903,27.390017652614322,0.11271842338654331,49.0,1458.0129339999999
865,29.070386833756306,2.9415137555488875,28.49906131216803,-0.3036989812609551,17.0,505.84122199999996
866,29.103994217379146,3.097906383372177,28.53266869579087,-0.5683921847759332,17.0,505.84122199999996
867,29.137601601001986,2.998437987612487,28.56627607941371,-0.6776323383695191,17.0,505.84122199999996
868,29.171208984624826,2.620630281563965,28.59988346303655,-0.7416368103854408,17.0,505.84122199999996
869,29.204816368247666,2.0809094125502052,28.63349084665939,-0.8272207831439392,17.0,505.84122199999996
870,29.238423751870503,1.5983871988217166,28.667098230282228,-0.8982656252918387,17.0,505.84122199999996
871,29.272031135493343,1.3830251934976203,28.70070561390507,-0.8342110548910648,17.0,505.84122199999996
872,29.305638519116183,1.5077730519094796,28.73431299752791,-0.517452133884081,17.0,505.84122199999996
873,29.339245902739023,1.8488645344337136,28.76792038115075,0.06621807440914305,17.0,505.84122199999996
874,29.372853286361863,2.14329331829756,28.80152776477359,0.7824149111296289,17.0,505.84122199999996
875,29.406460669984703,2.1349071924623755,28.86874253201927,1.6731221270924073,16.0,476.085856
876,29.440068053607543,1.7177638513281215,28.86874253201927,1.6731221270924073,17.0,505.84122199999996
877,29.473675437230384,0.9855646119408786,28.90234991564211,1.5191221936611716,17.0,505.84122199999996
878,29.50728282085322,0.1598137605726656,28.935957299264945,1.0037976330234213,17.0,505.84122199999996
879,29.54089020447606,-0.5497037549403677,28.969564682887786,0.32926748227417846,17.0,505.84122199999996
880,29.5744975880989,-1.0587441624371785,29.003172066510626,-0.27920597306825307,17.0,505.84122199999996
881,29.60810497172174,-1.4289147576921373,29.036779450133466,-0.680934618502679,17.0,505.84122199999996
882,29.64171235534458,-1.7921428645446444,29.070386833756306,-0.8703778096599128,17.0,505.84122199999996
883,29.67531973896742,-2.2353706248926453,29.103994217379146,-0.9475977879421552,17.0,505.84122199999996
884,29.70892712259026,-2.7211181314654858,29.137601601001986,-1.0303356984480168,17.0,505.84122199999996
885,29.7425345062131,-3.094849030914759,29.171208984624826,-1.1610804356199609,17.0,505.84122199999996
886,29.776141889835937,-3.175430330441845,29.204816368247663,-1.2655017960795492,17.0,505.84122199999996
887,29.809749273458777,-2.8705315535694793,29.238423751870503,-1.190389504905951,17.0,505.84122199999996
888,29.843356657081618,-2.240948377094093,29.272031135493343,-0.8028273463140497,17.0,505.84122199999996
889,29.876964040704458,-1.4723049685450829,29.305638519116183,-0.09291908713468043,17.0,505.84122199999996
890,29.910571424327298,-0.7752067551808658,29.339245902739023,0.7848163419875972,17.0,505.84122199999996
891,29.944178807950138,-0.2796255448340185,29.372853286361863,1.5629698010669992,17.0,505.84122199999996
892,29.977786191572978,0.012876219088888308,29.406460669984703,1.9816913117370953,17.0,505.84122199999996
893,30.011393575195818,0.19755051823003797,29.440068053607543,1.9116321767068032,17.0,505.84122199999996
894,30.045000958818655,0.38436378472087246,29.708927122590257,-0.9787155998352549,10.0,297.55366
895,30.078608342441495,0.6209177862317097,29.742534506213097,-1.1600949259992448,10.0,297.55366
896,30.112215726064335,0.8658424704382653,29.776141889835937,-1.244648228175155,10.0,297.55366
897,30.145823109687175,1.0224696153175252,29.809749273458777,-1.0662598611692853,10.0,297.55366
898,30.179430493310015,1.0065508818213327,29.843356657081618,-0.5445637207960652,10.0,297.55366
899,30.213037876932855,0.8058725232759699,29.876964040704458,0.24138935240032536,10.0,297.55366
900,30.246645260555695,0.49771073403276733,29.910571424327298,1.0649268790750972,10.0,297.55366
901,30.280252644178535,0.21440005393021655,29.944178807950138,1.6484489687943586,10.0,297.55366
902,30.313860027801372,0.07686091984469708,29.977786191572974,1.7938396165771975,10.0,297.55366
903,30.347467411424212,0.1354875701201813,31.120437234749524,1.2618461185653698,-23.0,-684.373418
904,30.381074795047052,0.35232724244981806,31.120437234749524,1.2618461185653698,-22.0,-654.6180519999999
905,30.414682178669892,0.6301759711194291,31.154044618372364,0.6814712738986576,-22.0,-654.6180519999999
906,30.448289562292732,0.8654377599632763,31.187652001995204,0.059014859839248826,-22.0,-654.6180519999999
907,30.481896945915572,0.9927492706365588,31.221259385618044,-0.3981064909076853,-22.0,-654.6180519999999
908,30.515504329538413,1.0009471632791893,31.254866769240884,-0.5994562116750521,-22.0,-654.6180519999999
909,30.549111713161253,0.9195009568320068,31.288474152863724,-0.5959617670407023,-22.0,-654.6180519999999
910,30.58271909678409,0.7898850017544249,31.32208153648656,-0.5302984196622536,-22.0,-654.6180519999999
911,30.61632648040693,0.6396186992460252,31.3556889201094,-0.5426191003093725,-22.0,-654.6180519999999
912,30.64993386402977,0.46886417949371517,31.38929630373224,-0.6824537647957454,-22.0,-654.6180519999999
913,30.68354124765261,0.25203052042192386,31.38929630373224,-0.6824537647957454,-21.0,-624.8626859999999
914,30.71714863127545,-0.04365381858298499,30.179430493310015,-0.7338308763670771,16.0,476.085856
915,30.75075601489829,-0.4238595702913307,30.213037876932855,-0.7213788273533431,16.0,476.085856
916,30.78436339852113,-0.8328512115364028,30.246645260555695,-0.7681752612414606,16.0,476.085856
917,30.81797078214397,-1.1479962153374645,30.280252644178535,-0.9118892260230099,16.0,476.085856
918,30.851578165766806,-1.2230808505340482,30.313860027801372,-1.0620577850778297,16.0,476.085856
919,30.885185549389647,-0.9685309904912689,30.54911171316125,1.665996438291868,10.0,297.55366
920,30.918792933012487,-0.4243124779390503,30.58271909678409,1.1630322222655387,10.0,297.55366
921,30.952400316635327,0.22613627048753768,30.61632648040693,0.4783547457030831,10.0,297.55366
922,30.986007700258167,0.7252138258316169,30.64993386402977,-0.1382293484859951,10.0,297.55366
923,31.019615083881007,0.8671625627552658,30.68354124765261,-0.5198041575964024,10.0,297.55366
924,31.053222467503847,0.610819294115079,30.71714863127545,-0.6474093191794452,10.0,297.55366
925,31.086829851126687,0.107558458786152,30.75075601489829,-0.6323138397509173,10.0,297.55366
926,31.120437234749524,-0.3784030992662424,30.784363398521126,-0.6300704064273295,10.0,297.55366
927,31.154044618372364,-0.6125032588038106,30.817970782143966,-0.7358769444372905,10.0,297.55366
928,31.187652001995204,-0.5116259385089493,31.187652001995204,0.059014859839248826,0.0,0.0
929,31.221259385618044,-0.17707971631824693,31.221259385618044,-0.3981064909076853,0.0,0.0
930,31.254866769240884,0.17391395050920644,31.254866769240884,-0.5994562116750521,0.0,0.0
931,31.288474152863724,0.3323914477154704,31.288474152863724,-0.5959617670407023,0.0,0.0
932,31.322081536486564,0.20438267246202327,31.322081536486564,-0.5302984196622467,0.0,0.0
933,31.355688920109404,-0.15485854194026882,31.355688920109404,-0.5426191003093739,0.0,0.0
934,31.38929630373224,-0.5857278615976464,31.38929630373224,-0.6824537647957454,0.0,0.0
935,31.42290368735508,-0.910908673857799,31.42290368735508,-0.8742799537652699,0.0,0.0
936,31.45651107097792,-1.0136153000772055,31.45651107097792,-0.9569723083153852,0.0,0.0
937,31.49011845460076,-0.8737777177621131,31.49011845460076,-0.7779824315296686,0.0,0.0
938,31.5237258382236,-0.5554530672103438,31.5237258382236,-0.2912985447751188,0.0,0.0
939,31.55733322184644,-0.1616800704723114,31.55733322184644,0.39720362418469446,0.0,0.0
940,31.59094060546928,0.21441235377580942,31.59094060546928,1.0661032365508643,0.0,0.0
941,31.62454798909212,0.5161164507528541,31.859799674452,-0.49356524373264526,-7.0,-208.28756199999998
942,31.65815537271496,0.7199002925354977,31.859799674451995,-0.49356524373264854,-6.0,-178.532196
943,31.6917627563378,0.8177432409225983,31.893407058074835,-0.4336227237448819,-6.0,-178.532196
944,31.72537013996064,0.8073331071626313,31.927014441697676,-0.46760848713236886,-6.0,-178.532196
945,31.75897752358348,0.6970422139307274,31.960621825320516,-0.6211043755127783,-6.0,-178.532196
946,31.79258490720632,0.5122274673513074,31.254866769240884,-0.5994562116750521,16.0,476.085856
947,31.82619229082916,0.2877444204178521,31.288474152863724,-0.5959617670407023,16.0,476.085856
948,31.859799674452,0.05085756572440377,31.322081536486564,-0.5302984196622467,16.0,476.085856
949,31.89340705807484,-0.1849455472961077,31.355688920109404,-0.5426191003093739,16.0,476.085856
950,31.927014441697676,-0.4037854022940633,31.38929630373224,-0.6824537647957454,16.0,476.085856
951,31.960621825320516,-0.5644482176223106,31.42290368735508,-0.8742799537652699,16.0,476.085856
952,31.994229208943356,-0.6007569062626212,31.45651107097792,-0.9569723083153852,16.0,476.085856
953,32.027836592566196,-0.4581284889825071,32.027836592566196,-0.8484734923195727,0.0,0.0
954,32.06144397618903,-0.14402959843786461,31.725370139960635,0.5654017427138505,10.0,297.55366
955,32.095051359811876,0.24982456589233476,31.75897752358348,-0.0010147191943864996,10.0,297.55366
956,32.12865874343471,0.5793464036570637,31.792584907206315,-0.38370392941583337,10.0,297.55366
957,32.162266127057556,0.718995661669634,32.162266127057556,1.053485158461419,0.0,0.0
958,32.19587351068039,0.6264132205776523,32.19587351068039,1.31062377570231,0.0,0.0
959,32.22948089430324,0.36075243168350635,32.22948089430324,1.181866713345176,0.0,0.0
960,32.26308827792607,0.04719685549887759,32.26308827792607,0.7386387317758026,0.0,0.0
961,32.29669566154892,-0.18791599417302318,32.29669566154892,0.1722589960010419,0.0,0.0
962,32.33030304517175,-0.274711278192339,32.33030304517175,-0.30496078906989965,0.0,0.0
963,32.36391042879459,-0.22309515838180144,32.36391042879459,-0.5606955323855158,0.0,0.0
964,32.39751781241743,-0.10655598914370411,32.39751781241743,-0.5937580305976273,0.0,0.0
965,32.43112519604027,-0.020287014663151214,32.43112519604027,-0.5127540771992833,0.0,0.0
966,32.464732579663114,-0.034222778156888595,32.464732579663114,-0.45800101914438696,0.0,0.0
967,32.49833996328595,-0.1585676173225279,32.49833996328595,-0.5111280850735923,0.0,0.0
968,32.531947346908794,-0.334203718015729,32.531947346908794,-0.642507643172215,0.0,0.0
969,32.56555473053163,-0.4552414418919588,32.56555473053163,-0.7265955109447441,0.0,0.0
970,32.59916211415447,-0.42118362499514295,32.59916211415447,-0.6183564033960692,0.0,0.0
971,32.63276949777731,-0.19840608831808978,32.63276949777731,-0.24857188050148996,0.0,0.0
972,32.66637688140015,0.14538746528547086,32.66637688140015,0.31783919145092276,0.0,0.0
973,32.69998426502299,0.4643248075902079,32.69998426502299,0.8977910964677911,0.0,0.0
974,32.73359164864583,0.6112603574670425,32.73359164864583,1.275032856113972,0.0,0.0
975,32.76719903226867,0.5236825868818478,32.76719903226867,1.3075405854834907,0.0,0.0
976,32.80080641589151,0.2611098108887426,32.80080641589151,0.9970913618442896,0.0,0.0
977,32.83441379951435,-0.03380583332159571,32.83441379951435,0.4837613225811173,0.0,0.0
978,32.86802118313719,-0.2254864533624816,32.86802118313719,-0.028304403130963506,0.0,0.0
979,32.901628566760024,-0.2659610313726214,32.901628566760024,-0.3710843042672379,0.0,0.0
980,32.93523595038287,-0.21350428544828678,32.599162114154474,-0.6183564033959911,10.0,297.55366
981,32.968843334005705,-0.18212412215954657,32.968843334005705,-0.4381255547262546,0.0,0.0
982,33.00245071762855,-0.25940327758481624,33.00245071762855,-0.36222534959838254,0.0,0.0
983,33.036058101251385,-0.44498204957297993,33.036058101251385,-0.38106171689874063,0.0,0.0
984,33.06966548487423,-0.6444669131009814,33.06966548487423,-0.5288803917911836,0.0,0.0
985,33.103272868497065,-0.7202796080466954,33.103272868497065,-0.7267097299956399,0.0,0.0
986,33.1368802521199,-0.5704467612079851,33.1368802521199,-0.8223694688507928,0.0,0.0
987,33.170487635742745,-0.19158771446866688,33.170487635742745,-0.6770678263456396,0.0,0.0
988,33.20409501936558,0.3101556729652237,33.20409501936558,-0.2530264728606535,0.0,0.0
989,33.237702402988425,0.7683658296749138,33.237702402988425,0.3479997357826105,0.0,0.0
990,33.27130978661126,1.0383023410045347,33.27130978661126,0.9212087010259643,0.0,0.0
991,33.304917170234106,1.0635964723614482,33.304917170234106,1.2540282688996216,0.0,0.0
992,33.33852455385694,0.8901281966764982,33.33852455385694,1.2289373387877491,0.0,0.0
993,33.372131937479786,0.6240345215499589,33.372131937479786,0.8776398934360121,0.0,0.0
994,33.40573932110262,0.3647253045874947,33.40573932110262,0.35889906402722216,0.0,0.0
995,33.43934670472546,0.15485881333056223,33.43934670472546,-0.1247365730049136,0.0,0.0
996,33.4729540883483,-0.02681447865759068,33.4729540883483,-0.4249242024057222,0.0,0.0
997,33.50656147197114,-0.2326737086922314,33.50656147197114,-0.5097326047673314,0.0,0.0
998,33.54016885559398,-0.4980879540147159,33.54016885559398,-0.46100662599059483,0.0,0.0
999,33.57377623921682,-0.8062451877595508,33.57377623921682,-0.4119503994508505,0.0,0.0
1000,33.60738362283966,-1.0832142041393698,33.60738362283966,-0.4602905679983222,0.0,0.0
1001,33.6409910064625,-1.2246452086735262,33.6409910064625,-0.6048556457478862,0.0,0.0
1002,33.674598390085336,-1.142355961698412,33.674598390085336,-0.7415997467971674,0.0,0.0
1003,33.70820577370818,-0.8102845481622161,33.70820577370818,-0.7235655790614722,0.0,0.0
1004,33.741813157331016,-0.28702007533949997,33.741813157331016,-0.4530875920705372,0.0,0.0
1005,33.77542054095386,0.2987093911015167,33.77542054095386,0.04654638977968912,0.0,0.0
1006,33.8090279245767,0.7946588907139028,33.8090279245767,0.6243707016444002,0.0,0.0
1007,33.84263530819954,1.0830999275232065,33.84263530819954,1.0682036821058383,0.0,0.0
1008,33.87624269182238,1.125250587270293,33.87624269182238,1.2091052249431125,0.0,0.0
1009,33.90985007544522,0.9725387110181616,33.90985007544522,1.0054304058765748,0.0,0.0
1010,33.94345745906806,0.7373107695271865,33.94345745906806,0.5600902606017609,0.0,0.0
1011,33.97706484269089,0.53392034058358,33.97706484269089,0.06345844585975435,0.0,0.0
1012,34.01067222631374,0.41938495285751193,34.01067222631374,-0.304565433156266,0.0,0.0
1013,34.044279609936574,0.367378153506958,34.044279609936574,-0.4597764835208324,0.0,0.0
1014,34.07788699355942,0.2921810202781834,34.07788699355942,-0.44227614995442455,0.0,0.0
1015,34.111494377182254,0.10908877596407729,34.111494377182254,-0.3763425938760256,0.0,0.0
1016,34.1451017608051,-0.20508171562615993,34.1451017608051,-0.3859286663645602,0.0,0.0
1017,34.178709144427934,-0.5874562176783628,34.178709144427934,-0.5133048961035166,0.0,0.0
1018,34.21231652805077,-0.9142586051374921,34.21231652805077,-0.6868975112824968,0.0,0.0
1019,34.245923911673614,-1.061075119841978,34.245923911673614,-0.7584461022358528,0.0,0.0
1020,34.27953129529645,-0.9658932658263863,34.27953129529645,-0.591316902859146,0.0,0.0
1021,34.313138678919294,-0.6620015729781745,34.313138678919294,-0.1509850160949631,0.0,0.0
1022,34.34674606254213,-0.2632854732937949,34.34674606254213,0.4560720571840552,0.0,0.0
1023,34.380353446164975,0.09061867866330868,34.380353446164975,1.021613829993923,0.0,0.0
1024,34.41396082978781,0.30004087216443653,34.41396082978781,1.3341897662781887,0.0,0.0
1025,34.447568213410655,0.34666505408612475,34.447568213410655,1.2825709184792553,0.0,0.0
1026,34.48117559703349,0.28890267865533903,34.48117559703349,0.9069770731166605,0.0,0.0
1027,34.51478298065633,0.21536208407551358,34.51478298065633,0.3723433704730172,0.0,0.0
1028,34.54839036427917,0.1848442424615467,34.54839036427917,-0.11814539315478674,0.0,0.0
1029,34.58199774790201,0.1894613083897156,34.58199774790201,-0.4209554030905486,0.0,0.0
1030,34.61560513152485,0.1629352222204713,34.61560513152485,-0.5113978329473936,0.0,0.0
1031,34.64921251514769,0.02795199604914988,34.64921251514769,-0.47728116201943566,0.0,0.0
1032,34.68281989877053,-0.24605815011398055,34.68281989877053,-0.4543158254034259,0.0,0.0
1033,34.71642728239337,-0.6071001644097819,34.71642728239337,-0.5389955256068212,0.0,0.0
1034,34.750034666016205,-0.9267030422485523,34.750034666016205,-0.725362340188906,0.0,0.0
1035,34.78364204963905,-1.0491009923824022,34.78364204963905,-0.9006341399968186,0.0,0.0
1036,34.817249433261885,-0.8650986733818831,34.817249433261885,-0.9052848632536082,0.0,0.0
1037,34.85085681688473,-0.3757267439752016,34.85085681688473,-0.6281531063476246,0.0,0.0
1038,34.884464200507566,0.29195777808067286,34.884464200507566,-0.08432594685934343,0.0,0.0
1039,34.91807158413041,0.933346027471209,34.91807158413041,0.5716067667150455,0.0,0.0
1040,34.951678967753246,1.3574634721665866,34.951678967753246,1.110092646743798,0.0,0.0
1041,34.98528635137609,1.4705047930929904,34.98528635137609,1.3364962669509168,0.0,0.0
1042,35.018893734998926,1.3049755666334166,35.018893734998926,1.1857013135045853,0.0,0.0
1043,35.05250111862176,0.9820994265524818,35.05250111862176,0.7492655801059143,0.0,0.0
1044,35.086108502244606,0.635148206477838,35.086108502244606,0.22238980327149016,0.0,0.0
1045,35.11971588586744,0.3408176391587996,35.11971588586744,-0.19734305619940473,0.0,0.0
1046,35.153323269490286,0.09601040139453695,35.153323269490286,-0.4038433484648803,0.0,0.0
1047,35.18693065311312,-0.15254817538809134,35.18693065311312,-0.4211962176658665,0.0,0.0
1048,35.22053803673597,-0.45004047496050625,35.22053803673597,-0.3707966829223598,0.0,0.0
1049,35.2541454203588,-0.7857606604693184,35.2541454203588,-0.3878427077451183,0.0,0.0
1050,35.28775280398164,-1.0852594406865452,35.28775280398164,-0.5332553106020206,0.0,0.0
1051,35.32136018760448,-1.2449997220403437,35.85907832556992,-0.6916440205445044,-16.0,-476.085856
1052,35.35496757122732,-1.1862419018837338,35.892685709192754,-0.939026421702025,-16.0,-476.085856
1053,35.388574954850164,-0.8965916535877001,35.9262930928156,-1.0787880123287457,-16.0,-476.085856
1054,35.422182338473,-0.43885754645743763,35.959900476438435,-0.9376944366548932,-16.0,-476.085856
1055,35.455789722095844,0.07368886938751776,35.455789722095844,0.2884748559440527,0.0,0.0
1056,35.48939710571868,0.5205233487638278,35.48939710571868,0.9597512778857499,0.0,0.0
1057,35.523004489341524,0.8140651315404939,35.523004489341524,1.4094625566138062,0.0,0.0
1058,35.55661187296436,0.9207505300342749,35.55661187296436,1.474164126917875,0.0,0.0
1059,35.5902192565872,0.8597227961509929,35.5902192565872,1.1479567558580321,0.0,0.0
1060,35.62382664021004,0.6863938731611118,35.62382664021004,0.5794441685756734,0.0,0.0
1061,35.65743402383288,0.47001877055501606,35.65743402383288,-0.006269623132539021,0.0,0.0
1062,35.69104140745572,0.27088199265729285,35.69104140745572,-0.4168720884791022,0.0,0.0
1063,35.72464879107856,0.12106117233427333,35.72464879107856,-0.5771773085136187,0.0,0.0
1064,35.7582561747014,0.015025413532408754,35.7582561747014,-0.5488416357040233,0.0,0.0
1065,35.79186355832424,-0.08294768829024435,35.79186355832424,-0.47975178263100127,0.0,0.0
1066,35.825470941947074,-0.2138911155921825,35.825470941947074,-0.5113557661038649,0.0,0.0
1067,35.85907832556992,-0.39248776634209526,35.85907832556992,-0.6916440205445044,0.0,0.0
1068,35.892685709192754,-0.5871701323808695,35.892685709192754,-0.939026421702025,0.0,0.0
1069,35.9262930928156,-0.7272512516387005,35.9262930928156,-1.0787880123287457,0.0,0.0
1070,35.959900476438435,-0.7373228663149617,35.959900476438435,-0.9376944366548932,0.0,0.0
1071,35.99350786006128,-0.580785191423644,35.99350786006128,-0.44925546062260246,0.0,0.0
1072,36.027115243684115,-0.2860683861754977,36.027115243684115,0.2892039158167587,0.0,0.0
1073,36.06072262730696,0.06118767646116869,36.06072262730696,1.0448022722949388,0.0,0.0
1074,36.094330010929795,0.3552705043902241,36.094330010929795,1.5528443974116268,0.0,0.0
1075,36.12793739455263,0.5148689275248515,36.12793739455263,1.6414401981692495,0.0,0.0
1076,36.161544778175475,0.5111232601019535,36.161544778175475,1.3095235862045753,0.0,0.0
1077,36.19515216179831,0.3682017876118434,36.19515216179831,0.7184179439965903,0.0,0.0
1078,36.228759545421156,0.14256522015920353,36.228759545421156,0.10602103956877519,0.0,0.0
1079,36.26236692904399,-0.10343591692290056,36.26236692904399,-0.3278834334354737,0.0,0.0
1080,36.295974312666836,-0.32132901408383685,36.295974312666836,-0.5068215331125278,0.0,0.0
1081,36.32958169628967,-0.48622402406065546,36.32958169628967,-0.4947806068497126,0.0,0.0
1082,36.36318907991251,-0.5973311259351054,36.36318907991251,-0.44218862590360847,0.0,0.0
1083,36.39679646353535,-0.6694263064378341,36.39679646353535,-0.49113280585855484,0.0,0.0
1084,36.43040384715819,-0.7162030747773493,36.43040384715819,-0.6883809764657156,0.0,0.0
1085,36.46401123078103,-0.7319762145457092,36.46401123078103,-0.9509527997524144,0.0,0.0
1086,36.49761861440387,-0.6840691815061766,36.49761861440387,-1.1043736722201463,0.0,0.0
1087,36.53122599802671,-0.5262374717485219,36.53122599802671,-0.9774921064284121,0.0,0.0
1088,36.56483338164955,-0.23030958725931472,36.56483338164955,-0.5058950092379993,0.0,0.0
1089,36.59844076527239,0.18286788504969112,36.59844076527239,0.21356740199053675,0.0,0.0
1090,36.63204814889523,0.6366094736892545,36.63204814889523,0.9520841842007228,0.0,0.0
1091,36.665655532518066,1.0257293477295373,36.665655532518066,1.451040529438261,0.0,0.0
1092,36.69926291614091,1.2652251078663193,36.69926291614091,1.5433842950406076,0.0,0.0
1093,36.732870299763746,1.3309685114399397,36.732870299763746,1.2288696631771896,0.0,0.0
1094,36.76647768338659,1.265086529605973,36.76647768338659,0.664834265193026,0.0,0.0
1095,36.80008506700943,1.1408304827978937,36.80008506700943,0.08159837319502534,0.0,0.0
1096,36.83369245063227,1.0107078651918529,36.83369245063227,-0.32980600009965777,0.0,0.0
1097,36.86729983425511,0.8748379397351178,36.86729983425511,-0.4997858370742679,0.0,0.0
1098,36.90090721787794,0.6914885603156452,36.90090721787794,-0.49396336460313056,0.0,0.0
1099,36.93451460150079,0.4207410791666012,36.93451460150079,-0.4564113993677564,0.0,0.0
1100,36.968121985123624,0.07005453265035425,36.968121985123624,-0.5148771361513653,0.0,0.0
1101,37.00172936874647,-0.2888735709603779,37.00172936874647,-0.6985550301952158,0.0,0.0
1102,37.035336752369304,-0.5435743318865882,37.035336752369304,-0.9127021233373964,0.0,0.0
1103,37.06894413599215,-0.592915845807135,37.06894413599215,-0.9861759142471763,0.0,0.0
1104,37.102551519614984,-0.40127924042204083,37.102551519614984,-0.769702965734306,0.0,0.0
1105,37.13615890323783,-0.027348328969745407,37.13615890323783,-0.23272145264592473,0.0,0.0
1106,37.169766286860664,0.38823568500354005,37.169766286860664,0.49715158070369314,0.0,0.0
1107,37.2033736704835,0.673467600987697,37.2033736704835,1.1792833219934464,0.0,0.0
1108,37.236981054106344,0.6934907474032458,37.236981054106344,1.5694983908522044,0.0,0.0
1109,37.27058843772918,0.4076400580758003,37.27058843772918,1.5356230611580122,0.0,0.0
1110,37.304195821352025,-0.1118556965022772,37.304195821352025,1.1170775860741382,0.0,0.0
1111,37.33780320497486,-0.7117909379432528,37.33780320497486,0.49892954670776624,0.0,0.0
1112,37.371410588597705,-1.2291382967136175,37.371410588597705,-0.08198361695407927,0.0,0.0
1113,37.40501797222054,-1.5680138026118533,37.40501797222054,-0.44775984937892815,0.0,0.0
1114,37.43862535584338,-1.7427397602861658,37.43862535584338,-0.5523520775887291,0.0,0.0
1115,37.47223273946622,-1.8621096706549864,37.438625355843385,-0.552352077588715,1.0,29.755366
1116,37.50584012308906,-2.058235719681478,37.47223273946622,-0.48552665834490655,1.0,29.755366
1117,37.5394475067119,-2.3921293325647652,37.505840123089065,-0.4113273295908043,1.0,29.755366
1118,37.57305489033474,-2.785022662567989,37.5394475067119,-0.47342157849990235,1.0,29.755366
1119,37.60666227395758,-3.019028227181951,37.573054890334745,-0.7124969301259179,1.0,29.755366
1120,37.64026965758042,-2.8202847710132977,37.60666227395758,-1.0349766126912137,1.0,29.755366
1121,37.67387704120326,-1.9939764063660959,37.640269657580426,-1.2506509495000797,1.0,29.755366
1122,37.7074844248261,-0.5466681986030314,37.67387704120326,-1.1660256267814517,1.0,29.755366
1123,37.741091808448935,1.2712226036873693,37.7074844248261,-0.6911272369424688,1.0,29.755366
1124,37.77469919207178,3.0353245867757277,37.74109180844894,0.09521450195964203,1.0,29.755366
1125,37.808306575694616,4.305309883909989,37.77469919207178,0.9612048552020485,1.0,29.755366
1126,37.84191395931746,4.798419622504883,37.80830657569462,1.6177183166928306,1.0,29.755366
1127,37.875521342940296,4.495139323092605,37.84191395931746,1.8475029524710271,1.0,29.755366
1128,37.90912872656314,3.6277720694371265,37.8755213429403,1.601266296766863,1.0,29.755366
1129,37.942736110185976,2.5616795816064655,37.90912872656314,1.0118611030227702,1.0,29.755366
1130,37.97634349380881,1.6304670183272647,37.942736110185976,0.3225687159779845,1.0,29.755366
1131,38.009950877431656,1.0054635754709231,37.97634349380882,-0.23034344163087445,1.0,29.755366
1132,38.04355826105449,0.6580573522193105,38.009950877431656,-0.5208144201641524,1.0,29.755366
1133,38.077165644677336,0.4222965540842623,38.0435582610545,-0.5735344778615535,1.0,29.755366
1134,38.11077302830017,0.11336602449150544,38.077165644677336,-0.5268713873092323,1.0,29.755366
1135,38.14438041192302,-0.364748790121189,38.11077302830018,-0.5408750050267669,1.0,29.755366
1136,38.17798779554585,-0.9723935064472989,38.14438041192302,-0.6983618123771299,1.0,29.755366
1137,38.2115951791687,-1.5598284831447178,38.17798779554586,-0.9500532012910756,1.0,29.755366
1138,38.24520256279153,-1.9433194467368837,38.2115951791687,-1.1340769453544153,1.0,29.755366
1139,38.27880994641437,-1.9939824196239413,38.24520256279153,-1.063447900051152,1.0,29.755366
1140,38.31241733003721,-1.7009071654351142,38.27880994641438,-0.6380698874251569,1.0,29.755366
1141,38.34602471366005,-1.1801018189637738,38.31241733003721,0.08011502321834198,1.0,29.755366
1142,38.379632097282894,-0.6227436091396124,38.34602471366006,0.8750944214926595,1.0,29.755366
1143,38.41323948090573,-0.20711998226083292,38.379632097282894,1.469716759654294,1.0,29.755366
1144,38.446846864528574,-0.021777916815042975,38.41323948090574,1.6560968394459805,1.0,29.755366
1145,38.48045424815141,-0.042440518536469955,38.446846864528574,1.3930248881307177,1.0,29.755366
1146,38.51406163177425,-0.17095923343001418,38.48045424815141,0.8185891707813601,1.0,29.755366
1147,38.54766901539709,-0.3054848768734161,38.514061631774254,0.17427023878129325,1.0,29.755366
1148,38.58127639901993,-0.3960083010356599,38.54766901539709,-0.3158081097927778,1.0,29.755366
1149,38.61488378264277,-0.4559751960140489,38.581276399019934,-0.5463449454992885,1.0,29.755366
1150,38.64849116626561,-0.5321199867907703,38.61488378264277,-0.5632308003215654,1.0,29.755366
1151,38.68209854988845,-0.6578809880396126,38.648491166265615,-0.5149477083833964,1.0,29.755366
1152,38.71570593351129,-0.8193452521956944,38.68209854988845,-0.5522442771876676,1.0,29.755366
1153,38.74931331713413,-0.9507713801046772,38.715705933511295,-0.7305407093782699,1.0,29.755366
1154,38.78292070075697,-0.9602580232355382,38.74931331713413,-0.9679848022939967,1.0,29.755366
1155,38.816528084379804,-0.7732466153431993,38.78292070075697,-1.0842069985964593,1.0,29.755366
1156,38.85013546800265,-0.37463107828528724,38.81652808437981,-0.9024689521970013,1.0,29.755366
1157,38.883742851625485,0.17120071845887885,38.85013546800265,-0.3614095885786854,1.0,29.755366
1158,38.91735023524833,0.7368952625210661,38.88374285162549,0.42718332717198865,1.0,29.755366
1159,38.950957618871165,1.1827314101244613,38.91735023524833,1.2119472055927776,1.0,29.755366
1160,38.98456500249401,1.4171199099312148,38.95095761887117,1.7137748926884628,1.0,29.755366
1161,39.018172386116845,1.4330796429127166,38.98456500249401,1.757365754100913,1.0,29.755366
1162,39.05177976973968,1.299547052558496,39.018172386116845,1.3520132048024043,1.0,29.755366
1163,39.085387153362525,1.11422555234065,39.05177976973969,0.6800922187525985,1.0,29.755366
1164,39.11899453698536,0.9482054253769696,39.085387153362525,0.002790257648824473,1.0,29.755366
1165,39.152601920608205,0.8152324324422408,39.11899453698537,-0.46492239738333047,1.0,29.755366
1166,39.18620930423104,0.6793111665189014,39.152601920608205,-0.6463941850210518,1.0,29.755366
1167,39.219816687853886,0.4894018238949153,39.18620930423105,-0.6199353912552689,1.0,29.755366
1168,39.25342407147672,0.2173936996825697,39.219816687853886,-0.5568256461100948,1.0,29.755366
1169,39.287031455099566,-0.12055168733643515,39.85835697668784,-0.564692014185359,-17.0,-505.84122199999996
1170,39.3206388387224,-0.4670323927621682,39.89196436031067,-0.9089040601078124,-17.0,-505.84122199999996
1171,39.35424622234524,-0.7467675533058559,39.92557174393351,-1.2847790752492187,-17.0,-505.84122199999996
1172,39.38785360596808,-0.8980519641444593,39.92557174393352,-1.2847790752492982,-16.0,-476.085856
1173,39.42146098959092,-0.8965973024056761,39.959179127556354,-1.4664628099961987,-16.0,-476.085856
1174,39.45506837321376,-0.7599517122418679,39.45506837321376,0.26494011925544353,0.0,0.0
1175,39.4886757568366,-0.532464063582485,39.4886757568366,1.156099422121544,0.0,0.0
1176,39.52228314045944,-0.2634264431907843,39.48867575683661,1.1560994221216763,1.0,29.755366
1177,39.55589052408228,0.006015155593081736,39.52228314045944,1.7822777520050996,1.0,29.755366
1178,39.589497907705116,0.24174541231465915,39.55589052408228,1.9390551504261286,1.0,29.755366
1179,39.62310529132796,0.41029509363448013,39.58949790770512,1.606684427214584,1.0,29.755366
1180,39.656712674950796,0.4805728580634034,39.62310529132796,0.948678284017932,1.0,29.755366
1181,39.69032005857364,0.43649148699810597,39.6567126749508,0.22702227452132814,1.0,29.755366
1182,39.72392744219648,0.28868219253434096,39.69032005857364,-0.31849186249499184,1.0,29.755366
1183,39.75753482581932,0.07151779858667953,39.723927442196484,-0.5683168067855704,1.0,29.755366
1184,39.79114220944216,-0.17465710228628864,39.75753482581932,-0.5580280073467287,1.0,29.755366
1185,39.824749593065,-0.42147695353504105,39.791142209442164,-0.44154728757862866,1.0,29.755366
1186,39.85835697668784,-0.6555656104392307,39.824749593065,-0.4041637872142953,1.0,29.755366
1187,39.89196436031067,-0.8649057935809935,39.85835697668784,-0.564692014185359,1.0,29.755366
1188,39.92557174393352,-1.0216134796713947,39.89196436031068,-0.9089040601078919,1.0,29.755366
1189,39.959179127556354,-1.078370251614996,39.92557174393352,-1.2847790752492982,1.0,29.755366
1190,39.9927865111792,-0.9860806835130755,39.95917912755636,-1.4664628099961559,1.0,29.755366
1191,40.026393894802034,-0.7232705205000279,39.9927865111792,-1.2634800859625526,1.0,29.755366
1192,40.06000127842488,-0.31629327507818183,40.02639389480204,-0.6259626021978563,1.0,29.755366
1193,40.093608662047714,0.1655688355480769,40.06000127842488,0.30897691225061485,1.0,29.755366
1194,40.12721604567055,0.6364806441954151,40.093608662047714,1.2602816796457812,1.0,29.755366
1195,40.160823429293394,1.0215839353248712,40.12721604567056,1.9198254021813517,1.0,29.755366
1196,40.19443081291623,1.268949774441742,40.160823429293394,2.0858334115546775,1.0,29.755366
1197,40.228038196539075,1.3489652810715553,40.19443081291624,1.7455093557916495,1.0,29.755366
1198,40.26164558016191,1.2565324881009534,40.19443081291623,1.7455093557917927,2.0,59.510732
1199,40.295252963784755,1.0217861994523985,40.228038196539075,1.068238770724932,2.0,59.510732
1200,40.32886034740759,0.7160241100843644,40.26164558016191,0.3193131109497728,2.0,59.510732
1201,40.362467731030435,0.4354669554152037,40.295252963784755,-0.25771873630252384,2.0,59.510732
1202,40.39607511465327,0.2626827789201357,40.32886034740759,-0.5340097159125334,2.0,59.510732
1203,40.42968249827611,0.22622066109479985,40.36246773103043,-0.5282873743788109,2.0,59.510732
1204,40.46328988189895,0.2837030783733968,40.39607511465327,-0.3763962142892559,2.0,59.510732
1205,40.49689726552179,0.3406511356934591,40.42968249827611,-0.25951663303723593,2.0,59.510732
1206,40.53050464914463,0.29828919193207737,40.46328988189895,-0.3225859406884679,2.0,59.510732
1207,40.56411203276747,0.1084808788731416,40.49689726552179,-0.610907609637711,2.0,59.510732
1208,40.59771941639031,-0.19277462679088683,40.53050464914463,-1.0442973480704483,2.0,59.510732
1209,40.63132680001315,-0.49588965272238456,40.56411203276747,-1.4389855904567361,2.0,59.510732
1210,40.664934183635985,-0.6733834400949619,40.597719416390305,-1.575877550865246,2.0,59.510732
1211,40.69854156725883,-0.6532287764415367,40.63132680001315,-1.2964220452223931,2.0,59.510732
1212,40.732148950881665,-0.46641863046708404,40.664934183635985,-0.5883192288058101,2.0,59.510732
1213,40.76575633450451,-0.23701190978781975,40.69854156725883,0.38373923888557193,2.0,59.510732
1214,40.799363718127346,-0.11788256389905312,40.732148950881665,1.3286954020201145,2.0,59.510732
1215,40.83297110175019,-0.21067395431241673,40.76575633450451,1.946119878511331,2.0,59.510732
1216,40.866578485373026,-0.5176957756440789,40.799363718127346,2.0541614891420306,2.0,59.510732
1217,40.90018586899587,-0.9492444681617818,40.83297110175019,1.6630701922905218,2.0,59.510732
1218,40.933793252618706,-1.3723464011610251,40.866578485373026,0.958797565268847,2.0,59.510732
1219,40.96740063624154,-1.6657884640784217,40.90018586899586,0.21083913019155398,2.0,59.510732
1220,41.001008019864386,-1.753812354618768,40.933793252618706,-0.3446556616976124,2.0,59.510732
1221,41.03461540348722,-1.6139931765170814,40.96740063624154,-0.5911386948068262,2.0,59.510732
1222,41.06822278711007,-1.2707780117637795,41.001008019864386,-0.5561047823594848,2.0,59.510732
1223,41.1018301707329,-0.7851232551377056,41.03461540348722,-0.37578436883736827,2.0,59.510732
1224,41.13543755435575,-0.24132325622053036,41.06822278711007,-0.2253318915048825,2.0,59.510732
1225,41.16904493797858,0.2732286665314611,41.1018301707329,-0.2451060729202465,2.0,59.510732
1226,41.20265232160142,0.6957853519310709,41.13543755435574,-0.48596204030053225,2.0,59.510732
1227,41.23625970522426,1.0125410888449944,41.16904493797858,-0.8861594592137932,2.0,59.510732
1228,41.2698670888471,1.2599142167592534,41.20265232160142,-1.2859150775214925,2.0,59.510732
1229,41.303474472469944,1.4923882228219851,41.23625970522426,-1.4804022741315108,2.0,59.510732
1230,41.33708185609278,1.7332868031261255,41.2698670888471,-1.30131917880051,2.0,59.510732
1231,41.370689239715624,1.9457579802960285,41.303474472469944,-0.7000373103969267,2.0,59.510732
1232,41.40429662333846,2.0514725109776792,41.33708185609278,0.20738053124765843,2.0,59.510732
1233,41.437904006961304,1.9866490447444378,41.370689239715624,1.1655059369954859,2.0,59.510732
1234,41.47151139058414,1.7512176091413765,41.40429662333846,1.8750205930463686,2.0,59.510732
1235,41.50511877420698,1.410623495928931,41.4379040069613,2.1172553028691166,2.0,59.510732
1236,41.53872615782982,1.0503590140945338,41.47151139058414,1.8456553029710616,2.0,59.510732
1237,41.57233354145266,0.7228137615165788,41.50511877420698,1.1980402626166253,2.0,59.510732
1238,41.6059409250755,0.42795480194186747,41.53872615782982,0.42696904301581945,2.0,59.510732
1239,41.63954830869834,0.13562592060560927,41.57233354145266,-0.21256654654693372,2.0,59.510732
1240,41.67315569232118,-0.17809009168997147,41.6059409250755,-0.563218226351121,2.0,59.510732
1241,41.70676307594402,-0.5143667085469099,41.63954830869834,-0.6125116137732007,2.0,59.510732
1242,41.740370459566854,-0.8643581315672251,41.673155692321174,-0.4763181999635696,2.0,59.510732
1243,41.7739778431897,-1.2298353790738474,41.70676307594402,-0.3343716351009529,2.0,59.510732
1244,41.807585226812535,-1.622620197105952,41.740370459566854,-0.34710383349283486,2.0,59.510732
1245,41.84119261043538,-2.0360927176554897,41.7739778431897,-0.5837963518872566,2.0,59.510732
