frame_idx,t_rppg,rppg_n,t_gt_pair,ppg_n_pair,lag_samples,lag_frames
0,0.0,0.0665050136602806,-0.374506370812989,-0.052520234248169005,11.0,323.091967
1,0.03404603371027173,-0.28994014356297826,-0.3404603371027173,-0.052520234248169005,11.0,323.091967
2,0.06809206742054345,-0.4163489205825073,-0.3064143033924455,-0.052520234248169005,11.0,323.091967
3,0.10213810113081517,-0.20050519823202992,-0.2723682696821738,-0.052520234248169005,11.0,323.091967
4,0.1361841348410869,0.2898037087607052,-0.23832223597190208,-0.052520234248169005,11.0,323.091967
5,0.17023016855135864,0.8450525043604078,-0.20427620226163035,-0.052520234248169005,11.0,323.091967
6,0.20427620226163035,1.2273295432555464,-0.17023016855135864,-0.052520234248169005,11.0,323.091967
7,0.23832223597190208,1.294752066370172,-0.1361841348410869,-0.052520234248169005,11.0,323.091967
8,0.2723682696821738,1.0672351294076494,-0.10213810113081517,-0.052520234248169005,11.0,323.091967
9,0.3064143033924455,0.7002423637689487,-0.06809206742054347,-0.052520234248169005,11.0,323.091967
10,0.3404603371027173,0.3873458190961439,-0.034046033710271706,-0.052520234248169005,11.0,323.091967
11,0.374506370812989,0.2508280670065258,0.0,-0.052520234248169005,11.0,323.091967
12,0.4085524045232607,0.28179087162067956,0.034046033710271706,-0.39927329653092314,11.0,323.091967
13,0.44259843823353245,0.358518779085734,0.06809206742054347,-0.7417616089036096,11.0,323.091967
14,0.47664447194380416,0.3244656204600327,0.10213810113081517,-1.0186678873664987,11.0,323.091967
15,0.5106905056540759,0.0749566645328302,0.13618413484108693,-1.1068619257784877,11.0,323.091967
16,0.5447365393643476,-0.39576005541604886,0.17023016855135864,-0.8846947389920415,11.0,323.091967
17,0.5787825730746193,-1.0035453957475857,0.20427620226163035,-0.32531521023675675,11.0,323.091967
18,0.612828606784891,-1.619248894330999,0.23832223597190205,0.4468337658014841,11.0,323.091967
19,0.6468746404951627,-2.113224711736543,0.27236826968217376,1.1857155579344474,11.0,323.091967
20,0.6809206742054346,-2.3774059165008334,0.3064143033924456,1.6334282863962628,11.0,323.091967
21,0.7149667079157063,-2.332245861473559,0.3404603371027173,1.64823134556007,11.0,323.091967
22,0.749012741625978,-1.9407393178477217,0.374506370812989,1.2736657592374332,11.0,323.091967
23,0.7830587753362497,-1.2358715131938602,0.4085524045232607,0.7073229059079338,11.0,323.091967
24,0.8171048090465214,-0.3391515579424977,0.4425984382335324,0.189333917973308,11.0,323.091967
25,0.8511508427567931,0.5591186349060855,0.4766444719438041,-0.1231752187115325,11.0,323.091967
26,0.8851968764670649,1.261949293110141,0.5106905056540759,-0.22561865158761218,11.0,323.091967
27,0.9192429101773366,1.6414551950318594,0.5447365393643476,-0.24556322329119487,11.0,323.091967
28,0.9532889438876083,1.6881850279747734,0.5787825730746193,-0.3495409155162038,11.0,323.091967
29,0.98733497759788,1.5086601271182023,0.612828606784891,-0.6313854114574038,11.0,323.091967
30,1.0213810113081518,1.2727790758143718,0.6468746404951629,-1.043192919209921,11.0,323.091967
31,1.0554270450184235,1.136396077816846,0.6809206742054346,-1.406599861669782,11.0,323.091967
32,1.0894730787286953,1.1748848107184404,0.7149667079157063,-1.501202742923066,11.0,323.091967
33,1.123519112438967,1.357155184816855,0.749012741625978,-1.1867468569266102,11.0,323.091967
34,1.1575651461492387,1.5698413711228965,0.7830587753362497,-0.4943763741110876,11.0,323.091967
35,1.1916111798595104,1.6779647783968001,0.8171048090465214,0.3668304938442518,11.0,323.091967
36,1.225657213569782,1.5921912831102396,0.8511508427567931,1.0985640194873678,11.0,323.091967
37,1.2597032472800538,1.3103052237686894,0.8851968764670648,1.4529749275681527,11.0,323.091967
38,1.2937492809903255,0.9120967799540168,0.9192429101773365,1.34725007434236,11.0,323.091967
39,1.3277953147005972,0.5093215180082008,0.9532889438876082,0.8911670729310408,11.0,323.091967
40,1.3618413484108691,0.17840807820421872,0.9873349775978801,0.3173104038565718,11.0,323.091967
41,1.3958873821211408,-0.08211433844528915,1.0213810113081518,-0.14190413101338797,11.0,323.091967
42,1.4299334158314125,-0.34043181932395455,1.0554270450184235,-0.36219557297368493,11.0,323.091967
43,1.4639794495416842,-0.6741956299474019,1.0894730787286953,-0.36813383909177566,11.0,323.091967
44,1.498025483251956,-1.1085183264533687,1.123519112438967,-0.2947826966624745,11.0,323.091967
45,1.5320715169622277,-1.5927491023440516,1.1575651461492387,-0.2979229594758572,11.0,323.091967
46,1.5661175506724994,-2.0283513971867384,1.1916111798595104,-0.4607839937905422,11.0,323.091967
47,1.600163584382771,-2.323449831990187,1.225657213569782,-0.7421427075906231,11.0,323.091967
48,1.6342096180930428,-2.4373158307267015,1.2597032472800538,-0.9901488532155973,11.0,323.091967
49,1.6682556518033145,-2.3930650050467093,1.2937492809903255,-1.0170375363126132,11.0,323.091967
50,1.7023016855135862,-2.2585847114279494,1.3277953147005972,-0.701112573016083,11.0,323.091967
51,1.7363477192238579,-2.1080281571159856,1.361841348410869,-0.06514811881766291,11.0,323.091967
52,1.7703937529341298,-1.9809368340438898,1.3958873821211408,0.7137641548661422,11.0,323.091967
53,1.8044397866444015,-1.858825054950267,1.4299334158314125,1.3754794487221242,11.0,323.091967
54,1.8384858203546732,-1.6745340325152027,1.4639794495416842,1.6964171085236293,11.0,323.091967
55,1.872531854064945,-1.3519326580406916,1.498025483251956,1.594041575406847,11.0,323.091967
56,1.9065778877752166,-0.8524894517409324,1.5320715169622277,1.15920721669369,11.0,323.091967
57,1.9406239214854883,-0.1992084192361009,1.5661175506724994,0.60104529101912,11.0,323.091967
58,1.97466995519576,0.535572707221488,1.600163584382771,0.13860285577437803,11.0,323.091967
59,2.0087159889060318,1.2656337157045265,1.6342096180930428,-0.10088338802050116,11.0,323.091967
60,2.0427620226163037,1.9213524321841258,1.6682556518033147,-0.1280875749388989,11.0,323.091967
61,2.076808056326575,2.4563523095541795,1.7023016855135862,-0.06787538424773502,11.0,323.091967
62,2.110854090036847,2.8367640085916013,1.736347719223858,-0.08582677335275667,11.0,323.091967
63,2.1449001237471186,3.034995351604284,2.1449001237471186,1.0333093836823106,0.0,0.0
64,2.1789461574573905,3.039178305835464,2.1789461574573905,0.6201790045712086,0.0,0.0
65,2.212992191167662,2.86640413646246,2.212992191167662,0.27255017729928877,0.0,0.0
66,2.247038224877934,2.5606948017231805,2.247038224877934,0.08918229763145502,0.0,0.0
67,2.2810842585882054,2.1724593308022944,2.2810842585882054,0.059237901756984186,0.0,0.0
68,2.3151302922984773,1.7354510690965834,2.3151302922984773,0.09391298007599788,0.0,0.0
69,2.3491763260087493,1.2605734362786931,2.3491763260087493,0.08435410442428895,0.0,0.0
70,2.3832223597190207,0.7517946380903503,2.3832223597190207,-0.04574211820042201,0.0,0.0
71,2.4172683934292927,0.23017182479402118,2.3832223597190207,-0.04574211820042201,1.0,29.371997
72,2.451314427139564,-0.2563728797214412,2.4172683934292922,-0.31023233010163653,1.0,29.371997
73,2.485360460849836,-0.649113661623477,2.451314427139564,-0.6547989341315338,1.0,29.371997
74,2.5194064945601076,-0.9105995505301299,2.4853604608498356,-0.9706210372480482,1.0,29.371997
75,2.5534525282703795,-1.0490501560327217,2.5194064945601076,-1.1251819774651457,1.0,29.371997
76,2.587498561980651,-1.1158092443842527,2.553452528270379,-1.0088778687216478,1.0,29.371997
77,2.621544595690923,-1.175231001673325,4.562168517176412,0.5077222449755205,-57.0,-1674.203829
78,2.6555906294011944,-1.2657032219910165,4.596214550886683,0.250494374599916,-57.0,-1674.203829
79,2.6896366631114663,-1.3768728127962089,4.630260584596955,0.1514232677677594,-57.0,-1674.203829
80,2.7236826968217382,-1.457292650862227,4.630260584596955,0.1514232677677594,-56.0,-1644.831832
81,2.7577287305320097,-1.4475674226842068,4.664306618307227,0.12883179229982208,-56.0,-1644.831832
82,2.7917747642422817,-1.3194403457279993,4.6983526520174985,0.09303574442706809,-56.0,-1644.831832
83,2.825820797952553,-1.0976108505070399,4.73239868572777,-0.009808280365686648,-56.0,-1644.831832
84,2.859866831662825,-0.8496481100306769,4.7664447194380415,-0.18219120399153702,-56.0,-1644.831832
85,2.8939128653730966,-0.6484612256024865,4.800490753148313,-0.3861891720208446,-56.0,-1644.831832
86,2.9279588990833685,-0.5316252544767818,4.800490753148313,-0.3861891720208446,-55.0,-1615.459835
87,2.96200493279364,-0.48609822368901634,4.834536786858585,-0.5685281746773767,-55.0,-1615.459835
88,2.996050966503912,-0.46858807024858024,4.868582820568857,-0.6866740310654557,-55.0,-1615.459835
89,3.0300970002141834,-0.4448328154403184,4.902628854279128,-0.7274342522713083,-55.0,-1615.459835
90,3.0641430339244553,-0.41769380932448436,4.9366748879894,-0.7138370309101005,-55.0,-1615.459835
91,3.0981890676347272,-0.4234180305476229,4.970720921699672,-0.6978252442262621,-55.0,-1615.459835
92,3.1322351013449987,-0.49802940170630006,5.004766955409943,-0.7379160142270893,-55.0,-1615.459835
93,3.1662811350552706,-0.6355517835800328,5.038812989120215,-0.8660636298646928,-55.0,-1615.459835
94,3.200327168765542,-0.767027041443816,5.038812989120215,-0.8660636298646928,-54.0,-1586.087838
95,3.234373202475814,-0.7809693121530131,5.072859022830487,-1.056620060059429,-54.0,-1586.087838
96,3.2684192361860855,-0.5821601841561751,5.106905056540759,-1.2168623911557679,-54.0,-1586.087838
97,3.3024652698963575,-0.15632285142242577,5.140951090251031,-1.2147290916631628,-54.0,-1586.087838
98,3.336511303606629,0.40451150129450764,5.174997123961302,-0.9412803601073846,-54.0,-1586.087838
99,3.370557337316901,0.9402015302302852,5.174997123961303,-0.9412803601073699,-53.0,-1556.715841
100,3.4046033710271724,1.3045972666429178,5.243089191381846,0.35885040155083053,-54.0,-1586.087838
101,3.4386494047374443,1.439752305787929,3.6769716407093465,0.2520138155466584,-7.0,-205.603979
102,3.4726954384477158,1.3970884191814694,3.711017674419618,0.23310869928426156,-7.0,-205.603979
103,3.5067414721579877,1.2982126918645789,3.74506370812989,0.15272362341135634,-7.0,-205.603979
104,3.5407875058682596,1.264439923157272,3.779109741840162,0.016505362400451223,-7.0,-205.603979
105,3.574833539578531,1.3548738428907567,3.8131557755504333,-0.14827479690325557,-7.0,-205.603979
106,3.608879573288803,1.5409221678940743,3.8812478429709767,-0.4546244578805332,-8.0,-234.975976
107,3.6429256069990745,1.7254712317396401,3.915293876681248,-0.5640668637795003,-8.0,-234.975976
108,3.6769716407093465,1.7955491320171704,3.94933991039152,-0.6339045570299461,-8.0,-234.975976
109,3.711017674419618,1.6810631474491364,3.94933991039152,-0.6339045570299461,-7.0,-205.603979
110,3.74506370812989,1.3875511836876417,3.983385944101792,-0.662317978888996,-7.0,-205.603979
111,3.7791097418401614,0.9860929626048579,4.0174319778120635,-0.6587668601793322,-7.0,-205.603979
112,3.8131557755504333,0.5711400650128343,4.0174319778120635,-0.6587668601793322,-6.0,-176.23198200000002
113,3.8472018092607048,0.21538588816122012,4.051478011522335,-0.6510621166754809,-6.0,-176.23198200000002
114,3.8812478429709767,-0.05379866193746202,4.085524045232607,-0.6818012106447366,-6.0,-176.23198200000002
115,3.9152938766812486,-0.25090761647064636,4.119570078942879,-0.7867615960042404,-6.0,-176.23198200000002
116,3.94933991039152,-0.4123866822434113,4.15361611265315,-0.9609441992026108,-6.0,-176.23198200000002
117,3.983385944101792,-0.5758981166436141,4.187662146363422,-1.1331547078593955,-6.0,-176.23198200000002
118,4.0174319778120635,-0.7697463049172409,4.221708180073694,-1.1748364049120035,-6.0,-176.23198200000002
119,4.051478011522335,-1.0123160735204337,4.255754213783966,-0.9539353959802297,-6.0,-176.23198200000002
120,4.085524045232607,-1.3115795213445383,4.289800247494238,-0.413827943199772,-6.0,-176.23198200000002
121,4.119570078942878,-1.6568869018326744,4.323846281204509,0.3691383116288971,-6.0,-176.23198200000002
122,4.15361611265315,-2.008216678662342,4.323846281204509,0.3691383116288971,-5.0,-146.859985
123,4.187662146363422,-2.2964155479401325,4.357892314914781,1.193931299804151,-5.0,-146.859985
124,4.221708180073694,-2.4418345196104814,4.391938348625053,1.8163197411032326,-5.0,-146.859985
125,4.255754213783965,-2.385468228479012,4.425984382335324,2.0617206000550796,-5.0,-146.859985
126,4.289800247494237,-2.1178540120834697,4.460030416045596,1.9037594256599382,-5.0,-146.859985
127,4.323846281204509,-1.6899993559874127,4.494076449755868,1.4642439999184997,-5.0,-146.859985
128,4.357892314914781,-1.1970839421291366,4.52812248346614,0.9405012921653388,-5.0,-146.859985
129,4.391938348625053,-0.7393415694569814,4.562168517176412,0.5077222449755205,-5.0,-146.859985
130,4.425984382335324,-0.3797806382570458,4.596214550886683,0.250494374599916,-5.0,-146.859985
131,4.460030416045596,-0.12327691625583903,4.630260584596955,0.1514232677677594,-5.0,-146.859985
132,4.494076449755868,0.07142932016178487,4.664306618307227,0.12883179229982208,-5.0,-146.859985
133,4.52812248346614,0.2580246180703135,4.6983526520174985,0.09303574442706809,-5.0,-146.859985
134,4.562168517176411,0.47132433527234924,4.73239868572777,-0.009808280365686648,-5.0,-146.859985
135,4.596214550886683,0.7149656231728083,4.7664447194380415,-0.18219120399153702,-5.0,-146.859985
136,4.630260584596955,0.9671347194592967,4.800490753148313,-0.3861891720208446,-5.0,-146.859985
137,4.664306618307227,1.193930341753467,4.834536786858585,-0.5685281746773767,-5.0,-146.859985
138,4.6983526520174985,1.3629838940899837,4.868582820568857,-0.6866740310654557,-5.0,-146.859985
139,4.73239868572777,1.4556979856706194,3.9833859441017916,-0.6623179788889957,22.0,646.183934
140,4.7664447194380415,1.4771266555001556,4.0174319778120635,-0.6587668601793322,22.0,646.183934
141,4.800490753148313,1.4591436341545014,4.051478011522335,-0.6510621166754809,22.0,646.183934
142,4.834536786858585,1.4504421470500677,4.085524045232607,-0.6818012106447366,22.0,646.183934
143,4.868582820568856,1.491922381793482,4.119570078942878,-0.7867615960042359,22.0,646.183934
144,4.902628854279128,1.588476672479015,4.15361611265315,-0.9609441992026108,22.0,646.183934
145,4.9366748879894,1.6965815145002887,4.187662146363422,-1.1331547078593955,22.0,646.183934
146,4.970720921699672,1.7391694239804396,4.221708180073694,-1.1748364049120035,22.0,646.183934
147,5.004766955409943,1.6400203662214698,4.255754213783965,-0.9539353959802438,22.0,646.183934
148,5.038812989120215,1.357742096416799,4.289800247494237,-0.41382794319979244,22.0,646.183934
149,5.072859022830487,0.903772604307442,4.323846281204509,0.3691383116288971,22.0,646.183934
150,5.106905056540759,0.34143028309525764,4.357892314914781,1.193931299804151,22.0,646.183934
151,5.140951090251031,-0.22974231191082184,5.31118125880239,1.5471377461382605,-5.0,-146.859985
152,5.174997123961302,-0.7012948923816608,5.345227292512661,1.6710510313019715,-5.0,-146.859985
153,5.209043157671574,-0.9924103784486471,5.345227292512661,1.6710510313019715,-4.0,-117.487988
154,5.243089191381846,-1.085582360923976,5.379273326222933,1.4717117177901502,-4.0,-117.487988
155,5.277135225092118,-1.041738644712366,5.413319359933205,1.0963312311517546,-4.0,-117.487988
156,5.311181258802389,-0.9779055337816087,4.562168517176411,0.5077222449755272,22.0,646.183934
157,5.345227292512661,-1.010332087657465,5.4814114273537475,0.48619825348779394,-4.0,-117.487988
158,5.379273326222933,-1.190773628361317,5.5154574610640195,0.3969921259467258,-4.0,-117.487988
159,5.413319359933205,-1.4744017012395436,5.549503494774291,0.3891265559072373,-4.0,-117.487988
160,5.4473653936434765,-1.7430001880455184,5.583549528484563,0.3601978355075867,-4.0,-117.487988
161,5.4814114273537475,-1.8721603667068905,5.617595562194834,0.2379543942026587,-4.0,-117.487988
162,5.5154574610640195,-1.799383796345407,5.651641595905106,0.015687436911758213,-4.0,-117.487988
163,5.549503494774291,-1.5478361679904382,5.685687629615378,-0.25299253200198124,-4.0,-117.487988
164,5.583549528484563,-1.1929164329400603,5.71973366332565,-0.49028284855920123,-4.0,-117.487988
165,5.617595562194834,-0.8012023173089792,5.753779697035921,-0.6383944210881588,-4.0,-117.487988
166,5.651641595905106,-0.39064021897180007,5.787825730746193,-0.6892491133111405,-4.0,-117.487988
167,5.685687629615378,0.057970360312409944,5.821871764456465,-0.6868920671259612,-4.0,-117.487988
168,5.71973366332565,0.5510400978331714,5.855917798166737,-0.7024041391024917,-4.0,-117.487988
169,5.753779697035921,1.039055728094546,5.889963831877008,-0.7918196335517688,-4.0,-117.487988
170,5.787825730746193,1.4188849618320232,5.92400986558728,-0.9551962072168428,-4.0,-117.487988
171,5.821871764456465,1.5801429021850724,5.958055899297552,-1.1183540567934482,-4.0,-117.487988
172,5.855917798166737,1.458888400933473,5.992101933007824,-1.1539173276066537,-4.0,-117.487988
173,5.889963831877009,1.0632606832448703,6.026147966718096,-0.9413806057811486,-4.0,-117.487988
174,5.92400986558728,0.4657281986913037,6.060194000428367,-0.4409986489575898,-4.0,-117.487988
175,5.958055899297552,-0.2192639819197154,6.094240034138639,0.2612013453076861,-4.0,-117.487988
176,5.992101933007824,-0.8555779921301117,6.128286067848911,0.972172526414728,-4.0,-117.487988
177,6.026147966718096,-1.3046014825241508,6.1623321015591825,1.4737279149239728,-4.0,-117.487988
178,6.060194000428367,-1.454256061978306,6.196378135269454,1.6251489707430573,-4.0,-117.487988
179,6.094240034138639,-1.2588455452916703,6.2304241689797255,1.4274014787193685,-4.0,-117.487988
180,6.128286067848911,-0.7708524195487144,6.264470202689997,1.0126609077736073,-4.0,-117.487988
181,6.1623321015591825,-0.13719279193411776,6.298516236400269,0.5692641787045276,-4.0,-117.487988
182,6.1963781352694545,0.451795522629474,6.332562270110541,0.24889212948819428,-4.0,-117.487988
183,6.2304241689797255,0.8410248586081602,6.366608303820812,0.10654530242582932,-4.0,-117.487988
184,6.264470202689997,0.9746976417427863,6.400654337531084,0.09781042625964945,-4.0,-117.487988
185,6.298516236400269,0.9083772549912136,6.400654337531084,0.09781042625964945,-3.0,-88.11599100000001
186,6.332562270110541,0.7626074936524774,6.468746404951628,0.09156119730471211,-4.0,-117.487988
187,6.366608303820812,0.6482087189686456,6.502792438661899,-0.039485299437051535,-4.0,-117.487988
188,6.400654337531084,0.61086089104589,6.536838472372171,-0.24747783309673163,-4.0,-117.487988
189,6.434700371241356,0.6272256152022249,6.570884506082443,-0.4684485564615328,-4.0,-117.487988
190,6.468746404951628,0.6466627716608983,6.604930539792715,-0.6347665184581651,-4.0,-117.487988
191,6.502792438661899,0.6412848938061478,6.638976573502986,-0.7112122042429087,-4.0,-117.487988
192,6.536838472372171,0.6268142544470009,6.673022607213258,-0.7127646705317304,-4.0,-117.487988
193,6.570884506082443,0.6440138299322035,6.70706864092353,-0.6959386027572971,-4.0,-117.487988
194,6.604930539792715,0.7207044703827876,6.741114674633802,-0.7255906813526358,-4.0,-117.487988
195,6.638976573502987,0.8449407228183132,6.775160708344074,-0.8303622030371302,-4.0,-117.487988
196,6.673022607213258,0.9657601887173225,6.809206742054345,-0.9693175682779366,-4.0,-117.487988
197,6.70706864092353,1.0140124503811438,6.843252775764617,-1.0332777482791533,-4.0,-117.487988
198,6.741114674633802,0.9248827006422717,6.877298809474889,-0.8908170869908155,-4.0,-117.487988
199,6.775160708344074,0.6530827218260759,6.9113448431851605,-0.46303119631191636,-4.0,-117.487988
200,6.809206742054345,0.18556139485090525,6.9453908768954316,0.21292656872680887,-4.0,-117.487988
201,6.843252775764617,-0.4423823971063414,6.9794369106057035,0.974520834644816,-4.0,-117.487988
202,6.877298809474889,-1.1333866383615243,7.013482944315975,1.594554293842598,-4.0,-117.487988
203,6.9113448431851605,-1.7341793528884646,7.047528978026247,1.8841921856902883,-4.0,-117.487988
204,6.9453908768954316,-2.0773828534241696,7.081575011736518,1.7809218034088043,-4.0,-117.487988
205,6.9794369106057035,-2.053678770068535,7.11562104544679,1.371571725120821,-4.0,-117.487988
206,7.013482944315975,-1.6789350894621518,7.149667079157062,0.8405778218950044,-4.0,-117.487988
207,7.047528978026247,-1.1082285369007647,7.183713112867334,0.37743751129014086,-4.0,-117.487988
208,7.081575011736519,-0.5733615024938559,7.217759146577606,0.09566775238608995,-4.0,-117.487988
209,7.11562104544679,-0.27066186432402645,7.251805180287877,0.0011199835162018876,-4.0,-117.487988
210,7.149667079157062,-0.263138412703691,7.285851213998149,0.015311840298336902,-4.0,-117.487988
211,7.183713112867334,-0.45466892809990705,7.319897247708421,0.031486943318992544,-4.0,-117.487988
212,7.217759146577606,-0.6491750127629448,7.353943281418693,-0.029225570554206822,-4.0,-117.487988
213,7.251805180287877,-0.6585469551041567,7.387989315128964,-0.18671607147220773,-4.0,-117.487988
214,7.285851213998149,-0.39981816222355676,7.422035348839236,-0.4043205664408854,-4.0,-117.487988
215,7.319897247708421,0.06774810065851736,7.456081382549508,-0.6173412471334158,-4.0,-117.487988
216,7.353943281418693,0.5810953697145169,7.49012741625978,-0.7711892527784142,-4.0,-117.487988
217,7.387989315128965,0.9622231960702912,7.524173449970052,-0.8510862932186315,-4.0,-117.487988
218,7.422035348839236,1.1060754320302628,7.558219483680323,-0.8891698792519114,-4.0,-117.487988
219,7.456081382549508,1.0198949832858464,7.592265517390595,-0.9432211493767972,-4.0,-117.487988
220,7.49012741625978,0.7979236744964794,7.626311551100867,-1.0538938868737393,-4.0,-117.487988
221,7.524173449970052,0.5534716778960975,7.6603575848111385,-1.2014213924674997,-4.0,-117.487988
222,7.558219483680323,0.3516349706232323,7.6944036185214095,-1.2904073510613856,-4.0,-117.487988
223,7.592265517390595,0.18101481908554917,7.7284496522316815,-1.1830321939708677,-4.0,-117.487988
224,7.626311551100867,-0.02155592137005858,7.762495685941953,-0.7746278101138311,-4.0,-117.487988
225,7.6603575848111385,-0.31009539697289906,7.796541719652225,-0.07335575485795814,-4.0,-117.487988
226,7.6944036185214095,-0.6720280977002401,7.830587753362496,0.7688830379764526,-4.0,-117.487988
227,7.7284496522316815,-1.013917131546597,7.864633787072768,1.5061552230985453,-4.0,-117.487988
228,7.762495685941953,-1.2029895645917317,7.89867982078304,1.9108359308335638,-4.0,-117.487988
229,7.796541719652225,-1.1394737010662073,7.932725854493312,1.8855131993733825,-4.0,-117.487988
230,7.830587753362497,-0.8138958797656639,7.69440361852141,-1.2904073510613827,4.0,117.487988
231,7.864633787072768,-0.31388186995280126,7.7284496522316815,-1.1830321939708677,4.0,117.487988
232,7.89867982078304,0.22202511112111356,7.762495685941953,-0.7746278101138311,4.0,117.487988
233,7.932725854493312,0.6728143091505107,8.10295602304467,0.18901496541177568,-5.0,-146.859985
234,7.966771888203584,0.9827342119841255,8.137002056754943,0.2314201238642657,-5.0,-146.859985
235,8.000817921913855,1.1626251915406616,8.137002056754943,0.2314201238642657,-4.0,-117.487988
236,8.034863955624127,1.2538363557161776,8.171048090465215,0.2523545957952192,-4.0,-117.487988
237,8.068909989334399,1.2878436082445146,7.932725854493312,1.8855131993733825,4.0,117.487988
238,8.10295602304467,1.27006410263042,7.966771888203584,1.5069536107432655,4.0,117.487988
239,8.137002056754943,1.1917209206799935,8.000817921913855,0.9770912383003743,4.0,117.487988
240,8.171048090465215,1.0520255071880467,8.034863955624127,0.5143176465981614,4.0,117.487988
241,8.205094124175487,0.8691602649528466,8.068909989334399,0.2507237287203637,4.0,117.487988
242,8.239140157885757,0.6712901643138138,8.102956023044669,0.1890149654117789,4.0,117.487988
243,8.273186191596029,0.4763626172139742,8.137002056754941,0.23142012386426347,4.0,117.487988
244,8.3072322253063,0.2787597821078106,8.171048090465213,0.2523545957952181,4.0,117.487988
245,8.341278259016573,0.05541447398732464,8.205094124175485,0.16936364842542487,4.0,117.487988
246,8.375324292726845,-0.2125768832295634,8.239140157885757,-0.023188123055602666,4.0,117.487988
247,8.409370326437116,-0.5211838989804086,8.579600494988474,-1.004973103640571,-5.0,-146.859985
248,8.443416360147388,-0.8437637049996589,8.613646528698746,-0.4879482320855161,-5.0,-146.859985
249,8.47746239385766,-1.1483857243758842,8.341278259016573,-0.6339481780026066,4.0,117.487988
250,8.51150842756793,-1.4134948797506126,8.375324292726843,-0.7159738393452972,4.0,117.487988
251,8.545554461278202,-1.625593530414605,8.409370326437115,-0.7842650865515721,4.0,117.487988
252,8.579600494988474,-1.761328148664824,8.443416360147387,-0.8944214590645733,4.0,117.487988
253,8.613646528698746,-1.7737749804741638,8.477462393857659,-1.057279878873008,4.0,117.487988
254,8.647692562409018,-1.6039461338271948,8.51150842756793,-1.2102921369550699,4.0,117.487988
255,8.68173859611929,-1.2201241226900983,8.545554461278202,-1.232542135546137,4.0,117.487988
256,8.715784629829562,-0.659908809990869,8.579600494988474,-1.004973103640571,4.0,117.487988
257,8.749830663539834,-0.037223021300226304,8.613646528698746,-0.4879482320855161,4.0,117.487988
258,8.783876697250106,0.5019692099352175,8.647692562409018,0.2306155095665081,4.0,117.487988
259,8.817922730960376,0.8499791607704645,8.681738596119288,0.9538361684653818,4.0,117.487988
260,8.851968764670648,0.9857737650680463,8.71578462982956,1.4601533984854167,4.0,117.487988
261,8.88601479838092,0.9702136652011085,8.749830663539832,1.6086551516704777,4.0,117.487988
262,8.920060832091192,0.8960435308134419,8.783876697250104,1.404114346781491,4.0,117.487988
263,8.954106865801464,0.8296535633671389,8.817922730960376,0.9846433772027098,4.0,117.487988
264,8.988152899511736,0.7823232459084928,8.851968764670648,0.542883810664319,4.0,117.487988
265,9.022198933222008,0.7243498123403348,8.88601479838092,0.229629668704101,4.0,117.487988
266,9.05624496693228,0.624540674044586,8.920060832091192,0.09318725678419747,4.0,117.487988
267,9.090291000642551,0.4819852755844909,8.954106865801464,0.0806203400923083,4.0,117.487988
268,9.124337034352822,0.3275989748728919,8.988152899511734,0.08963005762743721,4.0,117.487988
269,9.158383068063094,0.1988096137312213,9.022198933222006,0.03499394653590245,4.0,117.487988
270,9.192429101773365,0.10918275595160709,9.056244966932278,-0.1080586940091674,4.0,117.487988
271,9.226475135483637,0.03427450894970164,9.09029100064255,-0.30308537086490583,4.0,117.487988
272,9.26052116919391,-0.07780103254405558,9.124337034352822,-0.48825285646478167,4.0,117.487988
273,9.294567202904181,-0.2766770841813478,9.158383068063094,-0.62286102024487,4.0,117.487988
274,9.328613236614453,-0.5758200333752005,9.192429101773365,-0.7138954444838999,4.0,117.487988
275,9.362659270324725,-0.9312052648334288,9.226475135483637,-0.8045626682007071,4.0,117.487988
276,9.396705304034997,-1.244132348566757,9.26052116919391,-0.9307121818398345,4.0,117.487988
277,9.430751337745267,-1.3908618086580333,9.29456720290418,-1.0735030277461424,4.0,117.487988
278,9.46479737145554,-1.2717317807483366,9.328613236614451,-1.1437549482298754,4.0,117.487988
279,9.498843405165811,-0.8612144964348375,9.362659270324723,-1.017859385710774,4.0,117.487988
280,9.532889438876083,-0.23271462445790692,9.396705304034995,-0.6125682595697071,4.0,117.487988
281,9.566935472586355,0.46097174976544136,9.430751337745267,0.04463686050274106,4.0,117.487988
282,9.600981506296627,1.0459783051728335,9.46479737145554,0.7987693212893786,4.0,117.487988
283,9.635027540006899,1.3942245339501635,9.498843405165811,1.4248260524597027,4.0,117.487988
284,9.66907357371717,1.4655765721959935,9.532889438876083,1.7326555411739288,4.0,117.487988
285,9.703119607427443,1.3104915003370927,9.566935472586355,1.6587653288380109,4.0,117.487988
286,9.737165641137713,1.0384712346577598,9.600981506296625,1.2907646300980038,4.0,117.487988
287,9.771211674847985,0.7675883637204237,9.635027540006897,0.8125055242985202,4.0,117.487988
288,9.805257708558257,0.5744389075914672,9.669073573717169,0.40626412834055686,4.0,117.487988
289,9.839303742268529,0.46550798983343,9.70311960742744,0.16991061345289007,4.0,117.487988
290,9.8733497759788,0.38440759484905557,9.737165641137713,0.0911390319488394,4.0,117.487988
291,9.907395809689072,0.2521676123879771,9.771211674847985,0.08274103147254756,4.0,117.487988
292,9.941441843399344,0.018585293308598524,9.805257708558257,0.04875931333016836,4.0,117.487988
293,9.975487877109616,-0.30536679592598137,9.839303742268529,-0.06037079667778117,4.0,117.487988
294,10.009533910819886,-0.6538573956914457,9.873349775978799,-0.23251124688753552,4.0,117.487988
295,10.043579944530158,-0.9465306468635469,9.90739580968907,-0.4201034118210424,4.0,117.487988
296,10.07762597824043,-1.1349756055718991,9.941441843399343,-0.584820642367466,4.0,117.487988
297,10.111672011950702,-1.223892556952897,9.975487877109614,-0.7278097779318388,4.0,117.487988
298,10.145718045660974,-1.2547437945394297,10.009533910819886,-0.8833662258041839,4.0,117.487988
299,10.179764079371246,-1.26536904744368,10.043579944530158,-1.0786759659629959,4.0,117.487988
300,10.213810113081518,-1.253747979350051,10.07762597824043,-1.2870080801224817,4.0,117.487988
301,10.24785614679179,-1.1720827092525725,10.111672011950702,-1.4109680135818803,4.0,117.487988
302,10.281902180502062,-0.9591056413202429,10.145718045660974,-1.3178366865293263,4.0,117.487988
303,10.315948214212332,-0.5906335058658937,10.179764079371244,-0.9159846681460502,4.0,117.487988
304,10.349994247922604,-0.1108270909945258,10.213810113081516,-0.22899867494437243,4.0,117.487988
305,10.384040281632876,0.3810845316362145,10.247856146791788,0.5839288754455475,4.0,117.487988
306,10.418086315343148,0.7792513986456276,10.28190218050206,1.2852136205171123,4.0,117.487988
307,10.45213234905342,1.020406463796324,10.315948214212332,1.6681154912080705,4.0,117.487988
308,10.486178382763692,1.1045934100356671,10.349994247922604,1.655215930198247,4.0,117.487988
309,10.520224416473964,1.082155898137806,10.384040281632876,1.3275760524333262,4.0,117.487988
310,10.554270450184235,1.020746644748923,10.418086315343148,0.8701749270563436,4.0,117.487988
311,10.588316483894507,0.9713024626641625,10.45213234905342,0.4709473569248586,4.0,117.487988
312,10.622362517604778,0.9483570584979288,10.48617838276369,0.23418374297168787,4.0,117.487988
313,10.65640855131505,0.931970570873175,10.520224416473962,0.15257967076144113,4.0,117.487988
314,10.690454585025321,0.8873317470142723,10.554270450184234,0.14230356036288386,4.0,117.487988
315,10.724500618735593,0.7883867510237043,10.588316483894506,0.1096480677153967,4.0,117.487988
316,10.758546652445865,0.6306292578519004,10.622362517604778,0.005805562771600226,4.0,117.487988
317,10.792592686156137,0.4273783151581173,10.62236251760478,0.00580556277159162,5.0,146.859985
318,10.82663871986641,0.196256481966991,10.656408551315051,-0.15914500224453212,5.0,146.859985
319,10.860684753576681,-0.052169492764591006,10.690454585025323,-0.34293698234687525,5.0,146.859985
320,10.894730787286953,-0.31619977684600137,10.724500618735595,-0.5132187422235458,5.0,146.859985
321,10.928776820997223,-0.5957394573733017,10.758546652445865,-0.67253877183957,5.0,146.859985
322,10.962822854707495,-0.8808179211119161,10.792592686156137,-0.8473663324475973,5.0,146.859985
323,10.996868888417767,-1.1416824200923126,10.82663871986641,-1.048148991013791,5.0,146.859985
324,11.030914922128039,-1.3272285472114675,10.860684753576681,-1.2299386377457053,5.0,146.859985
325,11.06496095583831,-1.3779948405013651,10.894730787286953,-1.287777845804068,5.0,146.859985
326,11.099006989548583,-1.252317674844924,10.928776820997225,-1.1020630683634387,5.0,146.859985
327,11.133053023258855,-0.9520435128261793,10.962822854707497,-0.6149458089880337,5.0,146.859985
328,11.167099056969127,-0.530359112047955,10.996868888417769,0.10913222735281626,5.0,146.859985
329,11.201145090679397,-0.0756655799613644,11.030914922128039,0.8849029911725168,5.0,146.859985
330,11.235191124389669,0.3185216389092835,11.06496095583831,1.480557418059978,5.0,146.859985
331,11.26923715809994,0.5820530793328467,11.099006989548583,1.7267471698706978,5.0,146.859985
332,11.303283191810213,0.685480179738777,11.133053023258855,1.5956537625225902,5.0,146.859985
333,11.337329225520484,0.6440429648979902,11.167099056969127,1.2033534298988207,5.0,146.859985
334,11.371375259230756,0.5088600388714027,11.201145090679399,0.7382953789611832,5.0,146.859985
335,11.405421292941028,0.3472109411262856,11.23519112438967,0.3630070880694285,5.0,146.859985
336,11.4394673266513,0.21712306537158085,11.269237158099942,0.14580189012731554,5.0,146.859985
337,11.473513360361572,0.14586442867771568,11.303283191810214,0.05374429090870403,5.0,146.859985
338,11.507559394071842,0.12354035593379109,11.337329225520484,-0.0007586109820018954,5.0,146.859985
339,11.541605427782114,0.11681570746009,11.371375259230756,-0.0952330186018999,5.0,146.859985
340,11.575651461492386,0.09401488604910559,11.405421292941028,-0.2537419492566523,5.0,146.859985
341,11.609697495202658,0.042396107365539296,11.4394673266513,-0.44604278834033406,5.0,146.859985
342,11.64374352891293,-0.036126976660692624,11.473513360361572,-0.6226545430540905,5.0,146.859985
343,11.677789562623202,-0.14479087508997243,11.473513360361572,-0.6226545430540905,6.0,176.23198200000002
344,11.711835596333474,-0.30433597587476385,11.507559394071844,-0.7579012999852076,6.0,176.23198200000002
345,11.745881630043746,-0.5377123561840962,11.541605427782116,-0.869808359642292,6.0,176.23198200000002
346,11.779927663754018,-0.830745484637742,11.575651461492388,-1.0016886645681908,6.0,176.23198200000002
347,11.813973697464288,-1.0994857850121245,11.609697495202658,-1.175956376825202,6.0,176.23198200000002
348,11.84801973117456,-1.2006856011393197,11.64374352891293,-1.35142497308351,6.0,176.23198200000002
349,11.882065764884832,-0.996131775537766,11.677789562623202,-1.4181356136574026,6.0,176.23198200000002
350,11.916111798595104,-0.44107826611436046,11.711835596333474,-1.2440217444522261,6.0,176.23198200000002
351,11.950157832305376,0.3577842425252777,11.745881630043746,-0.7539143843657089,6.0,176.23198200000002
352,11.984203866015648,1.1592848501620328,11.779927663754018,0.00587239501251569,6.0,176.23198200000002
353,12.01824989972592,1.6837679019436154,11.81397369746429,0.863044618096288,6.0,176.23198200000002
354,12.052295933436191,1.7448628721272652,11.848019731174562,1.5860729731803778,6.0,176.23198200000002
355,12.086341967146463,1.347476759796725,11.882065764884834,1.986870175898263,6.0,176.23198200000002
356,12.120388000856734,0.6949389419378753,11.916111798595104,2.000231128458025,6.0,176.23198200000002
357,12.154434034567005,0.09490636919902061,11.950157832305376,1.6976861072929517,6.0,176.23198200000002
358,12.188480068277277,-0.1914118321868441,11.950157832305376,1.6976861072929517,7.0,205.603979
359,12.22252610198755,-0.07950333165113015,11.984203866015648,1.2362938693259202,7.0,205.603979
360,12.256572135697821,0.298718306244066,12.01824989972592,0.7791056886025405,7.0,205.603979
361,12.290618169408093,0.6707736914664946,12.052295933436191,0.4314906390905186,7.0,205.603979
362,12.324664203118365,0.7779382580457529,12.086341967146463,0.21875266908672958,7.0,205.603979
363,12.358710236828637,0.5235287725963202,12.120388000856735,0.10357651338075978,7.0,205.603979
364,12.392756270538909,0.02800388035950991,12.154434034567007,0.02374068377801564,7.0,205.603979
365,12.426802304249179,-0.44481187102716246,12.188480068277277,-0.07240756632565903,7.0,205.603979
366,12.460848337959451,-0.6462880379737463,12.256572135697821,-0.3701131923283433,6.0,176.23198200000002
367,12.494894371669723,-0.48822359409144533,12.290618169408093,-0.5353889983740471,6.0,176.23198200000002
368,12.528940405379995,-0.08941708392419828,12.324664203118365,-0.6746526001409088,6.0,176.23198200000002
369,12.562986439090267,0.2947374831510244,12.358710236828637,-0.7768056938182407,6.0,176.23198200000002
370,12.597032472800539,0.4100687912545042,12.392756270538909,-0.8569625336161332,6.0,176.23198200000002
371,12.63107850651081,0.13247806247636015,12.392756270538909,-0.8569625336161332,7.0,205.603979
372,12.665124540221083,-0.47280503477449404,12.42680230424918,-0.9508056943960536,7.0,205.603979
373,12.699170573931353,-1.1847032587829485,12.460848337959451,-1.0903828305042549,7.0,205.603979
374,12.733216607641625,-1.733042660193836,12.494894371669723,-1.269199439618451,7.0,205.603979
375,12.767262641351897,-1.9236046817440917,12.562986439090267,-1.4163247240668275,6.0,176.23198200000002
376,12.801308675062169,-1.7164033575112116,12.597032472800539,-1.1470772288400652,6.0,176.23198200000002
377,12.83535470877244,-1.2202346561479824,12.597032472800539,-1.1470772288400652,7.0,205.603979
378,12.869400742482712,-0.6180288372764401,12.63107850651081,-0.5723418448565555,7.0,205.603979
379,12.903446776192984,-0.07512425756240285,12.665124540221083,0.21801766601781938,7.0,205.603979
380,12.937492809903256,0.319101530035544,12.699170573931355,1.024136250906376,7.0,205.603979
381,12.971538843613528,0.5578934062377813,12.733216607641626,1.620664954922521,7.0,205.603979
382,13.005584877323798,0.6866820848333992,12.767262641351897,1.8618948507755768,7.0,205.603979
383,13.03963091103407,0.7629480646313923,12.801308675062169,1.7452772764935267,7.0,205.603979
384,13.073676944744342,0.8268208802410931,12.83535470877244,1.398382385847179,7.0,205.603979
385,13.107722978454614,0.8893895258561815,12.869400742482712,1.0030414512600252,7.0,205.603979
386,13.141769012164886,0.9366133661306272,12.903446776192984,0.7046576231966991,7.0,205.603979
387,13.175815045875158,0.9432557483036782,12.937492809903256,0.5551052169154228,7.0,205.603979
388,13.20986107958543,0.8894789198877519,12.971538843613528,0.5113818656944743,7.0,205.603979
389,13.243907113295702,0.772099564098941,13.0055848773238,0.47999444297855715,7.0,205.603979
390,13.277953147005974,0.6061813943121256,13.039630911034072,0.3766945786989815,7.0,205.603979
391,13.311999180716244,0.4191651019983739,13.073676944744342,0.1696087927875489,7.0,205.603979
392,13.346045214426516,0.24172771949028804,13.107722978454614,-0.11224858647720101,7.0,205.603979
393,13.380091248136788,0.09555644556080074,13.141769012164886,-0.403263033065052,7.0,205.603979
394,13.41413728184706,-0.022329761613652577,13.175815045875158,-0.6412865466177873,7.0,205.603979
395,13.448183315557332,-0.15003986874868258,13.20986107958543,-0.8018042953064919,7.0,205.603979
396,13.482229349267604,-0.34953967484677056,13.243907113295702,-0.9097165958253389,7.0,205.603979
397,13.516275382977875,-0.6671207865954447,13.277953147005974,-1.0228266723703858,7.0,205.603979
398,13.550321416688147,-1.0850673701766567,13.311999180716246,-1.1930918507732344,7.0,205.603979
399,13.58436745039842,-1.5022030890474196,13.346045214426518,-1.422694486920009,7.0,205.603979
400,13.61841348410869,-1.7693587905061636,13.41413728184706,-1.7082058622751222,6.0,176.23198200000002
401,13.652459517818961,-1.766918629864291,13.448183315557332,-1.4947980282495308,6.0,176.23198200000002
402,13.686505551529233,-1.4744196424500682,13.482229349267604,-0.9379707392116615,6.0,176.23198200000002
403,13.720551585239505,-0.9812257498023449,13.516275382977875,-0.10704310453784965,6.0,176.23198200000002
404,13.754597618949777,-0.4301274582443517,13.516275382977875,-0.10704310453784965,7.0,205.603979
405,13.788643652660049,0.06212006480017227,13.550321416688147,0.8063218042056942,7.0,205.603979
406,13.822689686370321,0.44938441894812486,13.58436745039842,1.5629356937321448,7.0,205.603979
407,13.856735720080593,0.7435923846700795,13.618413484108691,1.9803138198623564,7.0,205.603979
408,13.890781753790863,0.9718464713693739,13.652459517818961,2.00824087475652,7.0,205.603979
409,13.924827787501135,1.1479958504736352,13.686505551529233,1.735727035592715,7.0,205.603979
410,13.958873821211407,1.2790221490453557,13.720551585239505,1.3319923663026207,7.0,205.603979
411,13.992919854921679,1.3870191877929556,13.754597618949777,0.9603725028876924,7.0,205.603979
412,14.02696588863195,1.51103554339166,13.788643652660049,0.7121370375436684,7.0,205.603979
413,14.061011922342223,1.674871089660253,13.822689686370321,0.5878843481873133,7.0,205.603979
414,14.095057956052495,1.8453776460334732,13.856735720080593,0.5244505783782504,7.0,205.603979
415,14.129103989762767,1.9228836754997691,13.890781753790865,0.4436043345644853,7.0,205.603979
416,14.163150023473039,1.78393149615512,13.924827787501137,0.29436332973787627,7.0,205.603979
417,14.197196057183309,1.3554103630907055,13.958873821211407,0.07131239683794077,7.0,205.603979
418,14.23124209089358,0.6722976802926651,13.992919854921679,-0.19258919854319478,7.0,205.603979
419,14.265288124603853,-0.12251965091183227,14.02696588863195,-0.4483989400891655,7.0,205.603979
420,14.299334158314124,-0.843467206994424,14.061011922342223,-0.6556666061918204,7.0,205.603979
421,14.333380192024396,-1.3571611948191404,14.095057956052495,-0.7999846677608256,7.0,205.603979
422,14.367426225734668,-1.6471549652020232,14.129103989762767,-0.8996984959117648,7.0,205.603979
423,14.40147225944494,-1.803506686523961,14.163150023473039,-0.9999130708119518,7.0,205.603979
424,14.435518293155212,-1.9425020807843956,14.19719605718331,-1.1523561233627546,7.0,205.603979
425,14.469564326865484,-2.1127056647155396,14.265288124603854,-1.6604673174855387,6.0,176.23198200000002
426,14.503610360575754,-2.2538674211441885,14.299334158314124,-1.8799724552921504,6.0,176.23198200000002
427,14.537656394286026,-2.2363892498616442,14.333380192024396,-1.8916770493411417,6.0,176.23198200000002
428,14.571702427996298,-1.952087835551903,14.367426225734668,-1.5655084505657673,6.0,176.23198200000002
429,14.60574846170657,-1.3934174170893685,14.40147225944494,-0.8704904705617744,6.0,176.23198200000002
430,14.639794495416842,-0.6685089682584703,14.435518293155212,0.08061386402913531,6.0,176.23198200000002
431,14.673840529127114,0.05604629224219862,14.469564326865484,1.057932115496044,6.0,176.23198200000002
432,14.707886562837386,0.643676886198025,14.503610360575756,1.8080098770086284,6.0,176.23198200000002
433,14.741932596547658,1.0469857431464218,14.537656394286028,2.1649615347398776,6.0,176.23198200000002
434,14.77597863025793,1.301977693895799,14.5717024279963,2.116200993218566,6.0,176.23198200000002
435,14.8100246639682,1.4709976259638977,14.60574846170657,1.7886303310664329,6.0,176.23198200000002
436,14.844070697678472,1.5814120478165303,14.639794495416842,1.3706906365153155,6.0,176.23198200000002
437,14.878116731388744,1.6027101368355527,14.673840529127114,1.0200902336850928,6.0,176.23198200000002
438,14.912162765099016,1.4735725797004944,14.707886562837386,0.8061718141104262,6.0,176.23198200000002
439,14.946208798809288,1.1568906346201557,14.741932596547658,0.707083609783465,6.0,176.23198200000002
440,14.98025483251956,0.6835051644810705,14.77597863025793,0.6487669791236964,6.0,176.23198200000002
441,15.014300866229831,0.15413477094205888,14.810024663968202,0.5554611681804915,6.0,176.23198200000002
442,15.048346899940103,-0.3013176207211042,14.844070697678474,0.38509660413883706,6.0,176.23198200000002
443,15.082392933650373,-0.5798051662590311,14.878116731388744,0.1391192035576177,6.0,176.23198200000002
444,15.116438967360645,-0.6448075760844137,14.912162765099016,-0.14811930258430803,6.0,176.23198200000002
445,15.150485001070917,-0.5348372381948966,14.946208798809288,-0.4287592851767314,6.0,176.23198200000002
446,15.18453103478119,-0.3446806880024969,14.98025483251956,-0.6604625050866165,6.0,176.23198200000002
447,15.218577068491461,-0.19192651091311083,15.014300866229831,-0.8212613819997546,6.0,176.23198200000002
448,15.252623102201733,-0.1807314490628622,15.048346899940103,-0.9186839394384851,6.0,176.23198200000002
449,15.286669135912005,-0.3693025422817288,15.082392933650375,-0.9898117883180254,6.0,176.23198200000002
450,15.320715169622277,-0.7445347698512231,15.116438967360647,-1.0871846013352553,6.0,176.23198200000002
451,15.354761203332549,-1.2120433234645527,15.150485001070919,-1.2491853942916242,6.0,176.23198200000002
452,15.388807237042819,-1.6145395605840798,15.18453103478119,-1.4642490364056078,6.0,176.23198200000002
453,15.422853270753091,-1.7825377797154336,15.218577068491461,-1.6501316238656423,6.0,176.23198200000002
454,15.456899304463363,-1.6004748996169993,15.252623102201733,-1.6711053305910115,6.0,176.23198200000002
455,15.490945338173635,-1.0563554269320252,15.286669135912005,-1.3988351909306194,6.0,176.23198200000002
456,15.524991371883907,-0.2482872051669488,15.320715169622277,-0.7920801209374062,6.0,176.23198200000002
457,15.559037405594179,0.6557337306942441,15.354761203332549,0.05278319755198405,6.0,176.23198200000002
458,15.59308343930445,1.483089065794324,15.38880723704282,0.9211668808573682,6.0,176.23198200000002
459,15.627129473014723,2.113563016965803,15.422853270753093,1.56986661218946,6.0,176.23198200000002
460,15.661175506724994,2.503537537223366,15.456899304463365,1.8394981646234434,6.0,176.23198200000002
461,15.695221540435265,2.674304943196561,15.490945338173635,1.7244477804285618,6.0,176.23198200000002
462,15.729267574145537,2.6789939955750617,15.524991371883907,1.3616926068551558,6.0,176.23198200000002
463,15.763313607855808,2.565887768101633,15.559037405594179,0.9507542848244382,6.0,176.23198200000002
464,15.79735964156608,2.3514233738168135,15.59308343930445,0.6551648823204284,6.0,176.23198200000002
465,15.831405675276352,2.0140410940489746,15.627129473014723,0.5383510136614058,6.0,176.23198200000002
466,15.865451708986624,1.5163810880648347,15.661175506724994,0.5589445505375076,6.0,176.23198200000002
467,15.899497742696896,0.8478968882759261,15.695221540435266,0.6151492449728266,6.0,176.23198200000002
468,15.933543776407168,0.05909819940967086,15.729267574145538,0.6062250407127627,6.0,176.23198200000002
469,15.96758981011744,-0.7435592360302635,15.76331360785581,0.478933572667111,6.0,176.23198200000002
470,16.00163584382771,-1.4447484684844756,15.79735964156608,0.24180877843636722,6.0,176.23198200000002
471,16.035681877537982,-1.976428441854846,15.831405675276352,-0.051578934595818846,6.0,176.23198200000002
472,16.069727911248254,-2.3427434977672954,15.865451708986624,-0.33679247984778216,6.0,176.23198200000002
473,16.103773944958526,-2.5986779861113196,15.899497742696896,-0.5725154343108495,6.0,176.23198200000002
474,16.137819978668798,-2.799417978386921,15.933543776407168,-0.7590180381669884,6.0,176.23198200000002
475,16.17186601237907,-2.952969466772284,15.96758981011744,-0.9321614439346625,6.0,176.23198200000002
476,16.20591204608934,-3.0046707311463026,16.00163584382771,-1.1338001468886199,6.0,176.23198200000002
477,16.239958079799614,-2.8647470742543777,16.035681877537982,-1.371354528576867,6.0,176.23198200000002
478,16.274004113509886,-2.4656350174713704,16.069727911248254,-1.5889184642973015,6.0,176.23198200000002
479,16.308050147220158,-1.8153917244280915,16.103773944958526,-1.6724749190480779,6.0,176.23198200000002
480,16.34209618093043,-1.0117171491099646,16.137819978668798,-1.4974758330696365,6.0,176.23198200000002
481,16.3761422146407,-0.20341543809096302,16.137819978668798,-1.4974758330696365,7.0,205.603979
482,16.410188248350973,0.4802002031425558,16.17186601237907,-1.0013372198862418,7.0,205.603979
483,16.44423428206124,0.9889438989624809,16.205912046089338,-0.24066640789545313,7.0,205.603979
484,16.478280315771514,1.3619890149637626,16.23995807979961,0.6076070824758222,7.0,205.603979
485,16.512326349481786,1.6812871785649046,16.274004113509882,1.3127599207382066,7.0,205.603979
486,16.546372383192057,1.9997564582398097,16.308050147220154,1.692638183756388,7.0,205.603979
487,16.58041841690233,2.2952132492221717,16.342096180930426,1.6940127260148055,7.0,205.603979
488,16.6144644506126,2.4834861283200143,16.376142214640698,1.4056849770084727,7.0,205.603979
489,16.648510484322873,2.4795186246256553,16.41018824835097,1.0014546523760464,7.0,205.603979
490,16.682556518033145,2.2584127062256796,16.44423428206124,0.6507773280198595,7.0,205.603979
491,16.716602551743417,1.871405194157308,16.478280315771514,0.4472669482050659,7.0,205.603979
492,16.75064858545369,1.4114718096537826,16.512326349481786,0.38659760593626574,7.0,205.603979
493,16.78469461916396,0.9620059514124172,16.546372383192057,0.3937915230812559,7.0,205.603979
494,16.818740652874233,0.5664859199895937,16.58041841690233,0.3761291573215096,7.0,205.603979
495,16.852786686584505,0.23021205600849104,16.6144644506126,0.2719371787883758,7.0,205.603979
496,16.886832720294777,-0.06199141334161526,16.648510484322873,0.07462661892064601,7.0,205.603979
497,16.92087875400505,-0.33200717289844184,16.682556518033145,-0.17339065555658037,7.0,205.603979
498,16.95492478771532,-0.6035133058883501,16.716602551743417,-0.40901508441578366,7.0,205.603979
499,16.988970821425593,-0.8979049740050242,16.75064858545369,-0.583742020934669,7.0,205.603979
500,17.02301685513586,-1.2240778974581423,16.784694619163957,-0.6894891662663543,7.0,205.603979
501,17.057062888846133,-1.5652158966308867,16.81874065287423,-0.7625774820149599,7.0,205.603979
502,17.091108922556405,-1.8732505682646812,16.8527866865845,-0.8618358356564129,7.0,205.603979
503,17.125154956266677,-2.0796740240134253,16.886832720294773,-1.0282846605710196,7.0,205.603979
504,17.15920098997695,-2.121209330472624,16.920878754005045,-1.2452764322399592,7.0,205.603979
505,17.19324702368722,-1.967743959897779,16.954924787715317,-1.423432190498632,7.0,205.603979
506,17.227293057397493,-1.6359616779715114,16.98897082142559,-1.4277147517325315,7.0,205.603979
507,17.261339091107764,-1.1795620098939648,17.02301685513586,-1.142894913279948,7.0,205.603979
508,17.295385124818036,-0.6628739460537443,17.057062888846133,-0.547146364167566,7.0,205.603979
509,17.32943115852831,-0.13732902812621003,17.091108922556405,0.25059413865410807,7.0,205.603979
510,17.36347719223858,0.3630857142247723,17.125154956266677,1.040190420112516,7.0,205.603979
511,17.397523225948852,0.8092457484164527,17.15920098997695,1.5987969494548024,7.0,205.603979
512,17.431569259659124,1.1647077760562525,17.19324702368722,1.791338409116776,7.0,205.603979
513,17.465615293369396,1.3900205182979326,17.227293057397493,1.6262400454819421,7.0,205.603979
514,17.499661327079668,1.46304998172255,17.261339091107764,1.2375449793682842,7.0,205.603979
515,17.53370736078994,1.398906409844454,18.14653596757483,1.2107812421487942,-18.0,-528.695946
516,17.567753394500212,1.2522260150636995,18.180582001285103,0.7459465938897705,-18.0,-528.695946
517,17.601799428210484,1.0983432383257368,18.214628034995375,0.4073234849904629,-18.0,-528.695946
518,17.635845461920752,1.0043416698768026,18.248674068705643,0.25756095497021947,-18.0,-528.695946
519,17.669891495631024,1.0042745853504933,18.282720102415915,0.2510798003903342,-18.0,-528.695946
520,17.703937529341296,1.0866141329426442,18.316766136126187,0.2822327259767978,-18.0,-528.695946
521,17.737983563051568,1.1959744696743246,17.499661327079664,0.1826398359405303,7.0,205.603979
522,17.77202959676184,1.249693730206046,17.533707360789936,-0.01988632202764068,7.0,205.603979
523,17.80607563047211,1.1676089478033445,17.56775339450021,-0.2584468736544198,7.0,205.603979
524,17.840121664182384,0.905116478980998,17.60179942821048,-0.472302510677744,7.0,205.603979
525,17.874167697892656,0.4710132502829052,17.635845461920752,-0.6190798937881966,7.0,205.603979
526,17.908213731602928,-0.0838276119178232,17.669891495631024,-0.6955999553954122,7.0,205.603979
527,17.9422597653132,-0.6989348431450436,17.669891495631024,-0.6955999553954122,8.0,234.975976
528,17.97630579902347,-1.3288794506007837,17.703937529341296,-0.740093416311927,8.0,234.975976
529,18.010351832733743,-1.9369281367007165,17.737983563051568,-0.8125212252189822,8.0,234.975976
530,18.044397866444015,-2.466240494323944,17.77202959676184,-0.957705032369986,8.0,234.975976
531,18.078443900154287,-2.822852319542582,17.80607563047211,-1.1661397314982995,8.0,234.975976
532,18.11248993386456,-2.8982921455985484,17.840121664182384,-1.354946988210468,8.0,234.975976
533,18.14653596757483,-2.6262696957718474,17.874167697892656,-1.388594307563615,8.0,234.975976
534,18.180582001285103,-2.034632224965087,17.908213731602928,-1.140945179647056,8.0,234.975976
535,18.214628034995375,-1.2493202446031046,17.9422597653132,-0.5727453388536652,8.0,234.975976
536,18.248674068705643,-0.44015636091181676,17.976305799023468,0.22062475876425902,8.0,234.975976
537,18.282720102415915,0.2557870370968426,18.01035183273374,1.0286109783493544,8.0,234.975976
538,18.316766136126187,0.7801273197455442,18.04439786644401,1.612520492749395,8.0,234.975976
539,18.35081216983646,1.1434601564424884,18.078443900154284,1.8159410505140576,8.0,234.975976
540,18.38485820354673,1.3813967244355967,18.112489933864556,1.635346370743016,8.0,234.975976
541,18.418904237257003,1.518820624664602,18.146535967574827,1.2107812421488386,8.0,234.975976
542,18.452950270967275,1.5657517111864443,18.1805820012851,0.745946593889819,8.0,234.975976
543,18.486996304677547,1.5335130719895174,19.065778877752166,0.5149647024930916,-17.0,-499.323949
544,18.52104233838782,1.443964902019106,19.099824911462438,0.33388166047604095,-17.0,-499.323949
545,18.55508837209809,1.3189722325468105,19.13387094517271,0.2817981503165976,-17.0,-499.323949
546,18.589134405808363,1.163798078677392,18.316766136126187,0.2822327259767978,8.0,234.975976
547,18.623180439518634,0.9673959590855876,18.35081216983646,0.2517581787581409,8.0,234.975976
548,18.657226473228906,0.7234536098719992,18.38485820354673,0.11555596599940364,8.0,234.975976
549,18.69127250693918,0.44932603200865673,18.418904237257003,-0.10402992908901831,8.0,234.975976
550,18.72531854064945,0.17771851167796865,18.452950270967275,-0.3426001582590753,8.0,234.975976
551,18.759364574359722,-0.07554827467157296,18.486996304677547,-0.5358353221116633,8.0,234.975976
552,18.793410608069994,-0.33452822499820156,18.52104233838782,-0.6561247640103477,8.0,234.975976
553,18.827456641780262,-0.6462659624842747,18.555088372098087,-0.7256039602922555,8.0,234.975976
554,18.861502675490534,-1.0290720720767312,19.440285248565154,-0.7898163025407994,-17.0,-499.323949
555,18.895548709200806,-1.4266592039704102,19.474331282275426,-0.9126414714858608,-17.0,-499.323949
556,18.92959474291108,-1.7112656188590698,19.508377315985697,-1.106784453830198,-17.0,-499.323949
557,18.96364077662135,-1.7445888432348406,19.54242334969597,-1.3256769027384907,-17.0,-499.323949
558,18.997686810331622,-1.4608762126513593,19.57646938340624,-1.4550853296126933,-17.0,-499.323949
559,19.031732844041894,-0.916313436055901,19.610515417116513,-1.357370222685394,-17.0,-499.323949
560,19.065778877752166,-0.2694415109846691,18.79341060806999,-0.6027957168350688,8.0,234.975976
561,19.099824911462438,0.29611088281668296,18.827456641780262,0.12418006966403239,8.0,234.975976
562,19.13387094517271,0.6580135125150793,18.861502675490534,0.8879627891159838,8.0,234.975976
563,19.16791697888298,0.8002564998962569,18.895548709200806,1.471326972554949,8.0,234.975976
564,19.201963012593254,0.7965113112018771,18.92959474291108,1.7213878448795028,8.0,234.975976
565,19.236009046303526,0.750079458364198,18.96364077662135,1.6170768891113954,8.0,234.975976
566,19.270055080013798,0.7323983173869361,18.997686810331622,1.2680097565899098,8.0,234.975976
567,19.30410111372407,0.7579668045371303,19.031732844041894,0.8495048470696979,8.0,234.975976
568,19.33814714743434,0.8029065727012675,19.91692972050896,0.7024392146454487,-17.0,-499.323949
569,19.372193181144613,0.8395394823872492,19.950975754219233,0.4721233343139965,-17.0,-499.323949
570,19.406239214854885,0.8523280552544511,19.985021787929504,0.3931278857124911,-17.0,-499.323949
571,19.440285248565154,0.827928710988356,20.019067821639773,0.39877167586372536,-17.0,-499.323949
572,19.474331282275426,0.7425140399122876,19.20196301259325,0.23297160971324707,8.0,234.975976
573,19.508377315985697,0.5694034728419473,19.236009046303522,0.1064295847233293,8.0,234.975976
574,19.54242334969597,0.30280550901472897,19.270055080013794,-0.09346127780222482,8.0,234.975976
575,19.57646938340624,-0.027993453190250848,19.304101113724066,-0.31786335140955974,8.0,234.975976
576,19.610515417116513,-0.37190124862095475,19.338147147434338,-0.5106188909712734,8.0,234.975976
577,19.644561450826785,-0.6871522261514299,19.37219318114461,-0.640208200396152,8.0,234.975976
578,19.678607484537057,-0.962718221067267,19.40623921485488,-0.7174129874291102,8.0,234.975976
579,19.71265351824733,-1.2113360497435675,19.440285248565154,-0.7898163025407994,8.0,234.975976
580,19.7466995519576,-1.4410581954953536,19.474331282275426,-0.9126414714858608,8.0,234.975976
581,19.780745585667873,-1.6300303137720766,19.508377315985697,-1.106784453830198,8.0,234.975976
582,19.814791619378145,-1.7251630365419555,19.54242334969597,-1.3256769027384907,8.0,234.975976
583,19.848837653088417,-1.6662317763475731,19.57646938340624,-1.4550853296126933,8.0,234.975976
584,19.88288368679869,-1.4192572845500633,20.461666259873308,-1.4324150835436917,-17.0,-499.323949
585,19.91692972050896,-0.9978209015060261,20.49571229358358,-1.3869891383330635,-17.0,-499.323949
586,19.950975754219233,-0.45979176774678715,20.52975832729385,-1.021739175376897,-17.0,-499.323949
587,19.985021787929504,0.11717002686663518,20.563804361004124,-0.34029708786735363,-17.0,-499.323949
588,20.019067821639773,0.6660099880511592,19.746699551957597,1.288424096583769,8.0,234.975976
589,20.053113855350045,1.1486461023472574,19.78074558566787,1.7060913320627795,8.0,234.975976
590,20.087159889060317,1.5508952967983867,19.81479161937814,1.7472389818129175,8.0,234.975976
591,20.12120592277059,1.8578575520743887,19.848837653088413,1.4812348503893675,8.0,234.975976
592,20.15525195648086,2.030169306247437,19.882883686798685,1.0745479219259606,8.0,234.975976
593,20.189297990191132,2.003700872376276,19.916929720508957,0.7024392146454874,8.0,234.975976
594,20.223344023901404,1.7190348614665694,19.95097575421923,0.47212333431402054,8.0,234.975976
595,20.257390057611676,1.166026299019285,19.9850217879295,0.39312788571249935,8.0,234.975976
596,20.29143609132195,0.4167897247275477,20.019067821639773,0.39877167586372536,8.0,234.975976
597,20.32548212503222,-0.3768378507020631,20.053113855350045,0.3965380962959581,8.0,234.975976
598,20.359528158742492,-1.027407205745311,20.087159889060317,0.31715205422159193,8.0,234.975976
599,20.393574192452764,-1.379050875753896,20.12120592277059,0.1412046249045603,8.0,234.975976
600,20.427620226163036,-1.3662397593656435,20.15525195648086,-0.10174896159550988,8.0,234.975976
601,20.461666259873308,-1.0397555169072918,20.189297990191132,-0.35407092600587925,8.0,234.975976
602,20.49571229358358,-0.5510872166091371,20.223344023901404,-0.5588431490992118,8.0,234.975976
603,20.52975832729385,-0.09862830617134655,20.257390057611676,-0.6858555530043041,8.0,234.975976
604,20.563804361004124,0.14825651857617186,20.29143609132195,-0.7463841247524996,8.0,234.975976
605,20.597850394714396,0.1162235207542254,20.32548212503222,-0.789895700967377,8.0,234.975976
606,20.631896428424664,-0.14778547764100275,20.35952815874249,-0.8792561531798515,8.0,234.975976
607,20.665942462134936,-0.5074976025422396,20.39357419245276,-1.0497995700896814,8.0,234.975976
608,20.699988495845208,-0.8030128974719645,20.427620226163032,-1.2703360618082569,8.0,234.975976
609,20.73403452955548,-0.912755303982556,20.461666259873304,-1.4324150835436749,8.0,234.975976
610,20.76808056326575,-0.7838957576053658,20.461666259873308,-1.4324150835436917,9.0,264.347973
611,20.802126596976024,-0.43090813491796154,20.49571229358358,-1.3869891383330635,9.0,264.347973
612,20.836172630686296,0.07943192886167992,20.52975832729385,-1.021739175376897,9.0,264.347973
613,20.870218664396567,0.6425020099270844,20.563804361004124,-0.34029708786735363,9.0,264.347973
614,20.90426469810684,1.1325582188698435,20.597850394714396,0.5088914108878617,9.0,264.347973
615,20.93831073181711,1.4320074752307723,20.631896428424668,1.2833998412091914,9.0,264.347973
616,20.972356765527383,1.4717695660480345,20.66594246213494,1.7566927611937562,9.0,264.347973
617,21.006402799237655,1.262921940736364,20.69998849584521,1.8247369375595779,9.0,264.347973
618,21.040448832947927,0.8951938194819439,20.734034529555483,1.54689349621243,9.0,264.347973
619,21.0744948666582,0.4953521014674272,20.768080563265755,1.1008650601965642,9.0,264.347973
620,21.10854090036847,0.1672644803263336,20.802126596976027,0.6841687697746756,9.0,264.347973
621,21.142586934078743,-0.048666066757359176,20.8361726306863,0.4213283973193258,9.0,264.347973
622,21.176632967789015,-0.1730848076306964,20.87021866439657,0.3238492495808989,9.0,264.347973
623,21.210679001499283,-0.2523131543047229,20.90426469810684,0.3136568033822757,9.0,264.347973
624,21.244725035209555,-0.32262191115854705,20.93831073181711,0.2856809845064498,9.0,264.347973
625,21.278771068919827,-0.39905573878152417,20.972356765527383,0.17005821265098495,9.0,264.347973
626,21.3128171026301,-0.4864529136205615,21.040448832947924,-0.2867192325809808,8.0,234.975976
627,21.34686313634037,-0.5912266968895213,21.074494866658195,-0.5111712054161159,8.0,234.975976
628,21.380909170050643,-0.7183222712484587,21.108540900368467,-0.6706142200299954,8.0,234.975976
629,21.414955203760915,-0.8590471201982021,21.14258693407874,-0.7728416895298034,8.0,234.975976
630,21.449001237471187,-0.987737551164882,21.17663296778901,-0.8645781774991621,8.0,234.975976
631,21.48304727118146,-1.0747886166513207,21.210679001499283,-0.9954731575836312,8.0,234.975976
632,21.51709330489173,-1.102990873506527,21.244725035209555,-1.1737868870619035,8.0,234.975976
633,21.551139338602002,-1.0689641976676654,21.278771068919827,-1.3397613855009314,8.0,234.975976
634,21.585185372312274,-0.9688601214719447,21.3128171026301,-1.3779220306657252,8.0,234.975976
635,21.619231406022546,-0.7863265576156604,22.163967945386894,-1.0306994323020557,-16.0,-469.951952
636,21.65327743973282,-0.498993702769366,22.198013979097166,-0.38459518324464215,-16.0,-469.951952
637,21.68732347344309,-0.10074152725403984,22.232060012807437,0.3944689210092197,-16.0,-469.951952
638,21.721369507153362,0.37856215344698124,22.26610604651771,1.1122486203994886,-16.0,-469.951952
639,21.755415540863634,0.8726719838946171,22.30015208022798,1.5857127217405298,-16.0,-469.951952
640,21.789461574573906,1.3000349728170368,22.334198113938253,1.7224449310371621,-16.0,-469.951952
641,21.823507608284174,1.5935861732258962,22.36824414764852,1.5543008052292615,-16.0,-469.951952
642,21.857553641994446,1.7216692552136867,22.402290181358794,1.2093255125911428,-16.0,-469.951952
643,21.891599675704718,1.6897590181746234,22.436336215069066,0.8419659183041933,-16.0,-469.951952
644,21.92564570941499,1.526690107632273,22.470382248779337,0.5621886711714439,-16.0,-469.951952
645,21.959691743125262,1.2692863121515467,22.50442828248961,0.3989082838151724,-16.0,-469.951952
646,21.993737776835534,0.9567322495866041,22.53847431619988,0.30966644762298307,-16.0,-469.951952
647,22.027783810545806,0.6330912989700868,22.572520349910153,0.22306994133119,-16.0,-469.951952
648,22.061829844256078,0.34638701053425885,22.606566383620425,0.08626780259277879,-16.0,-469.951952
649,22.09587587796635,0.13568030528723912,22.640612417330697,-0.10850225703460187,-16.0,-469.951952
650,22.12992191167662,0.008996159938131026,22.67465845104097,-0.3296051333698094,-16.0,-469.951952
651,22.163967945386894,-0.0749993857620858,21.92564570941499,-0.6816856219474658,7.0,205.603979
652,22.198013979097166,-0.2036688186869915,21.959691743125262,-0.8856463504634414,7.0,205.603979
653,22.232060012807437,-0.47229371027454276,21.959691743125262,-0.8856463504634414,8.0,234.975976
654,22.26610604651771,-0.9198132201924095,21.993737776835534,-1.0785167562930646,8.0,234.975976
655,22.30015208022798,-1.4767457593972149,22.027783810545806,-1.2754249918112168,8.0,234.975976
656,22.334198113938253,-1.9721529733815693,22.061829844256078,-1.4532249020090022,8.0,234.975976
657,22.368244147648525,-2.213326525779632,22.09587587796635,-1.5358988920983532,8.0,234.975976
658,22.402290181358794,-2.0948234261698757,22.129921911676618,-1.4195971226499298,8.0,234.975976
659,22.436336215069066,-1.6615427239690728,22.16396794538689,-1.0306994323020964,8.0,234.975976
660,22.470382248779337,-1.0780074258299612,22.198013979097162,-0.38459518324470954,8.0,234.975976
661,22.50442828248961,-0.5244328961958884,22.232060012807434,0.39446892100913844,8.0,234.975976
662,22.53847431619988,-0.09336774823237431,22.266106046517706,1.1122486203994137,8.0,234.975976
663,22.572520349910153,0.2426735138046716,22.300152080227978,1.5857127217404803,8.0,234.975976
664,22.606566383620425,0.5754177176334792,22.33419811393825,1.722444931037148,8.0,234.975976
665,22.640612417330697,0.9617773959913863,22.402290181358794,1.2093255125911428,7.0,205.603979
666,22.67465845104097,1.355881826901187,22.436336215069066,0.8419659183041933,7.0,205.603979
667,22.70870448475124,1.6239398932440554,22.470382248779337,0.5621886711714439,7.0,205.603979
668,22.742750518461513,1.6328889690537287,23.28748705782586,0.4033951549517593,-16.0,-469.951952
669,22.776796552171785,1.348602375743986,22.947026720723144,-1.2719018758395226,-5.0,-146.859985
670,22.810842585882057,0.8716152465947179,22.981072754433416,-0.7802944771947334,-5.0,-146.859985
671,22.84488861959233,0.3828361788228896,23.01511878814369,-0.049984034182486314,-5.0,-146.859985
672,22.8789346533026,0.03567718252802188,23.04916482185396,0.7471795399940592,-5.0,-146.859985
673,22.912980687012872,-0.13073669608012792,23.083210855564232,1.393101771254636,-5.0,-146.859985
674,22.947026720723144,-0.1979934677612167,23.117256889274504,1.7208375601171355,-5.0,-146.859985
675,22.981072754433416,-0.29314266914293613,23.151302922984776,1.687891891677512,-5.0,-146.859985
676,23.015118788143685,-0.48717110807838776,22.77679655217178,-0.8668384869531663,7.0,205.603979
677,23.049164821853957,-0.7374774776834748,22.810842585882053,-1.04066173314806,7.0,205.603979
678,23.08321085556423,-0.9114557362984693,22.844888619592325,-1.2399161440096218,7.0,205.603979
679,23.1172568892745,-0.873137522902122,22.878934653302597,-1.4163954533410914,7.0,205.603979
680,23.151302922984772,-0.5738805105122274,22.91298068701287,-1.4655262915104446,7.0,205.603979
681,23.185348956695044,-0.08748345045859314,22.94702672072314,-1.2719018758395428,7.0,205.603979
682,23.219394990405316,0.42983236073683073,23.389625158956676,0.17083841915686349,-5.0,-146.859985
683,23.253441024115588,0.8227874620993724,23.423671192666948,0.017140397156870924,-5.0,-146.859985
684,23.28748705782586,1.0074058726238788,23.45771722637722,-0.19295220209486172,-5.0,-146.859985
685,23.321533091536132,0.9896612353624126,23.49176326008749,-0.4117654417842655,-5.0,-146.859985
686,23.355579125246404,0.834918450598216,23.525809293797764,-0.5968056766129394,-5.0,-146.859985
687,23.389625158956676,0.6209911225501875,23.559855327508036,-0.7405824665858559,-5.0,-146.859985
688,23.423671192666948,0.4064513751811648,23.593901361218307,-0.871895836472774,-5.0,-146.859985
689,23.45771722637722,0.22237675884739583,23.62794739492858,-1.0259378660024792,-5.0,-146.859985
690,23.49176326008749,0.07674491568923869,23.253441024115588,0.6236340057748679,7.0,205.603979
691,23.525809293797764,-0.039428624991134475,23.28748705782586,0.4033951549517593,7.0,205.603979
692,23.559855327508036,-0.14670467571742157,23.730085496059395,-1.3091689102899107,-5.0,-146.859985
693,23.593901361218304,-0.2717835605068143,23.764131529769664,-1.0288787039116536,-5.0,-146.859985
694,23.627947394928576,-0.4412512427853966,23.798177563479936,-0.47298166307702794,-5.0,-146.859985
695,23.661993428638848,-0.6720443227949754,23.832223597190207,0.2570941968021928,-5.0,-146.859985
696,23.69603946234912,-0.9571328882151678,23.86626963090048,0.9661714089424962,-5.0,-146.859985
697,23.73008549605939,-1.252054173066002,23.90031566461075,1.4494423168106125,-5.0,-146.859985
698,23.764131529769664,-1.474640397344784,23.934361698321023,1.5876625929790138,-5.0,-146.859985
699,23.798177563479936,-1.5281555961081037,23.968407732031295,1.3982656963051725,-5.0,-146.859985
700,23.832223597190207,-1.3455853697781386,24.002453765741567,1.0152192709398666,-5.0,-146.859985
701,23.86626963090048,-0.9350211262962229,23.661993428638848,-1.2011230635440677,6.0,176.23198200000002
702,23.90031566461075,-0.3945198497372197,23.69603946234912,-1.3328676205534673,6.0,176.23198200000002
703,23.934361698321023,0.12483435599222037,23.73008549605939,-1.30916891028994,6.0,176.23198200000002
704,23.968407732031295,0.49414996235701547,23.764131529769664,-1.0288787039116536,6.0,176.23198200000002
705,24.002453765741567,0.6728151672084053,23.798177563479936,-0.47298166307702794,6.0,176.23198200000002
706,24.03649979945184,0.7191419469566207,23.832223597190207,0.2570941968021928,6.0,176.23198200000002
707,24.07054583316211,0.7391337598389256,23.86626963090048,0.9661714089424962,6.0,176.23198200000002
708,24.104591866872383,0.8118815462583067,23.90031566461075,1.4494423168106125,6.0,176.23198200000002
709,24.138637900582655,0.943640860287852,23.934361698321023,1.5876625929790138,6.0,176.23198200000002
710,24.172683934292927,1.0772134066593297,24.342914102844286,-0.546660994843238,-5.0,-146.859985
711,24.206729968003195,1.1408856707374708,24.376960136554555,-0.692365467152915,-5.0,-146.859985
712,24.240776001713467,1.0951700622260392,24.411006170264827,-0.8508844258151836,-5.0,-146.859985
713,24.27482203542374,0.9456334267297674,24.4450522039751,-1.0331350512802608,-5.0,-146.859985
714,24.30886806913401,0.723579978398303,24.47909823768537,-1.1997277428412993,-5.0,-146.859985
715,24.342914102844283,0.4599061198655429,24.172683934292923,0.1650453097376227,5.0,146.859985
716,24.376960136554555,0.1731233971376172,24.206729968003195,0.10764077194330415,5.0,146.859985
717,24.411006170264827,-0.12640839854238262,24.240776001713467,-0.023893530171798332,5.0,146.859985
718,24.4450522039751,-0.4261450165420998,24.27482203542374,-0.20319475392966893,5.0,146.859985
719,24.47909823768537,-0.7046604294602873,24.30886806913401,-0.38620454944574933,5.0,146.859985
720,24.513144271395642,-0.9322168370859639,24.342914102844283,-0.5466609948432228,5.0,146.859985
721,24.547190305105914,-1.0768596563879653,24.376960136554555,-0.692365467152915,5.0,146.859985
722,24.581236338816186,-1.1124664068372028,24.751466507367546,1.5489438195331127,-5.0,-146.859985
723,24.61528237252646,-1.026633627550648,24.785512541077818,1.2642052371825983,-5.0,-146.859985
724,24.64932840623673,-0.827634790753828,24.81955857478809,0.8805725431925885,-5.0,-146.859985
725,24.683374439947002,-0.548219119093621,24.513144271395642,-1.25779234885934,5.0,146.859985
726,24.717420473657274,-0.241903917475452,24.547190305105914,-1.1003370814231461,5.0,146.859985
727,24.751466507367546,0.03144382958385305,24.581236338816186,-0.6719546361015767,5.0,146.859985
728,24.785512541077818,0.22811082823500714,24.61528237252646,-0.021456767347109863,5.0,146.859985
729,24.819558574788086,0.3398545767796184,24.649328406236727,0.6970299388242867,5.0,146.859985
730,24.853604608498358,0.39525824396117915,24.683374439947,1.2835392356737656,5.0,146.859985
731,24.88765064220863,0.43866470167019933,24.71742047365727,1.5819577403463032,5.0,146.859985
732,24.921696675918902,0.5004661655222029,24.751466507367542,1.548943819533116,5.0,146.859985
733,24.955742709629174,0.5803400837540627,24.785512541077814,1.264205237182628,5.0,146.859985
734,24.989788743339446,0.6536531743154951,24.819558574788086,0.8805725431926233,5.0,146.859985
735,25.023834777049718,0.6917667019013356,24.853604608498358,0.5460364923823787,5.0,146.859985
736,25.05788081075999,0.6781423026394764,24.88765064220863,0.3406981598836034,5.0,146.859985
737,25.09192684447026,0.610825086630104,24.921696675918902,0.25709657049865464,5.0,146.859985
738,25.125972878180534,0.49575090337528394,24.955742709629174,0.2256053415642861,5.0,146.859985
739,25.160018911890806,0.3393170815138801,25.364295114152437,-1.3802570599561863,-6.0,-176.23198200000002
740,25.194064945601077,0.14408036055354365,25.39834114786271,-1.183542985928279,-6.0,-176.23198200000002
741,25.22811097931135,-0.09107428623851399,25.43238718157298,-0.6874809502568019,-6.0,-176.23198200000002
742,25.26215701302162,-0.3647095923874298,25.09192684447026,-0.4236736577080024,5.0,146.859985
743,25.296203046731893,-0.6629223873221607,25.125972878180534,-0.6233290856660205,5.0,146.859985
744,25.330249080442165,-0.9539802274996788,25.160018911890806,-0.7526223366597283,5.0,146.859985
745,25.364295114152437,-1.1940883840136327,25.194064945601077,-0.8236837908411287,5.0,146.859985
746,25.398341147862705,-1.3420707646416317,25.228110979311346,-0.8870964381918147,5.0,146.859985
747,25.432387181572977,-1.3744663504280172,25.262157013021618,-0.9969012972200775,5.0,146.859985
748,25.46643321528325,-1.292833920546325,25.29620304673189,-1.1651103040646125,5.0,146.859985
749,25.50047924899352,-1.1195012334891639,25.33024908044216,-1.3326367183700922,5.0,146.859985
750,25.534525282703793,-0.8845867454010307,25.364295114152434,-1.3802570599561814,5.0,146.859985
751,25.568571316414065,-0.6120582364296409,25.398341147862705,-1.1835429859283306,5.0,146.859985
752,25.602617350124337,-0.31143975917934985,25.432387181572977,-0.687480950256878,5.0,146.859985
753,25.63666338383461,0.022149295277995626,25.46643321528325,0.04261749844030269,5.0,146.859985
754,25.67070941754488,0.39751556026622714,25.50047924899352,0.8303826235845404,5.0,146.859985
755,25.704755451255153,0.8061092347904358,25.874985619806512,0.28264910329745746,-5.0,-146.859985
756,25.738801484965425,1.2005988556896734,25.568571316414065,1.7743201751331301,5.0,146.859985
757,25.772847518675697,1.495280976403688,25.602617350124337,1.7390335603626184,5.0,146.859985
758,25.80689355238597,1.60151416014093,25.63666338383461,1.4471221489240862,5.0,146.859985
759,25.84093958609624,1.4822615859628239,25.67070941754488,1.0593962389948068,5.0,146.859985
760,25.874985619806512,1.1880266694224508,25.704755451255153,0.7247518925836668,5.0,146.859985
761,25.909031653516784,0.8452759114340708,25.738801484965425,0.521356275832592,5.0,146.859985
762,25.943077687227056,0.6002998754758442,25.772847518675697,0.44256386428206634,5.0,146.859985
763,25.97712372093733,0.5494435641122709,25.80689355238597,0.4237124142005452,5.0,146.859985
764,26.011169754647597,0.6924425395012711,25.840939586096237,0.3874517926485411,5.0,146.859985
765,26.04521578835787,0.9308870777680152,25.87498561980651,0.2826491032974684,5.0,146.859985
766,26.07926182206814,1.110999748282425,25.90903165351678,0.10187870978577418,5.0,146.859985
767,26.113307855778412,1.0899229601949603,25.943077687227053,-0.12376986407659082,5.0,146.859985
768,26.147353889488684,0.7946731171757365,25.977123720937325,-0.3444644044179211,5.0,146.859985
769,26.181399923198956,0.2474196660357981,26.011169754647597,-0.5157699498990133,5.0,146.859985
770,26.215445956909228,-0.45117175713971414,26.04521578835787,-0.6193042597059347,5.0,146.859985
771,26.2494919906195,-1.1664602458952138,26.07926182206814,-0.6741277724130628,5.0,146.859985
772,26.283538024329772,-1.7757344726845032,26.113307855778412,-0.733198619322523,5.0,146.859985
773,26.317584058040044,-2.195392179718184,26.147353889488684,-0.8606356396830952,5.0,146.859985
774,26.351630091750316,-2.3872281832262128,26.181399923198956,-1.0927576278108009,5.0,146.859985
775,26.385676125460588,-2.3531695252294593,26.215445956909228,-1.3984617293539612,5.0,146.859985
776,26.41972215917086,-2.1256394053774645,26.2494919906195,-1.6643863247453734,5.0,146.859985
777,26.45376819288113,-1.7553460810443415,26.283538024329772,-1.7261569245668613,5.0,146.859985
778,26.487814226591404,-1.2988034293194404,26.317584058040044,-1.443955926938216,5.0,146.859985
779,26.521860260301676,-0.8093596396976753,26.351630091750316,-0.788497765758361,5.0,146.859985
780,26.555906294011947,-0.3319908307958118,26.385676125460588,0.11494842871042277,5.0,146.859985
781,26.589952327722216,0.10114278273066298,26.419722159170856,1.0214740643208353,5.0,146.859985
782,26.623998361432488,0.4742122461247055,26.453768192881128,1.6712183597017622,5.0,146.859985
783,26.65804439514276,0.7860768591712929,26.4878142265914,1.9080326297135395,5.0,146.859985
784,26.69209042885303,1.0424352281152767,26.521860260301672,1.7445819554372235,5.0,146.859985
785,26.726136462563304,1.24726784452733,26.555906294011944,1.3393747687072803,5.0,146.859985
786,26.760182496273575,1.3992827072338918,26.589952327722216,0.904841559832149,5.0,146.859985
787,26.794228529983847,1.493012115319694,26.623998361432488,0.6026075961077669,5.0,146.859985
788,26.82827456369412,1.5205922802012755,26.65804439514276,0.48149176382639264,5.0,146.859985
789,26.86232059740439,1.4728153046058297,26.69209042885303,0.4821320770473154,5.0,146.859985
790,26.896366631114663,1.341422303292039,26.726136462563304,0.49330668315876103,5.0,146.859985
791,26.930412664824935,1.123897762533827,26.760182496273575,0.42153625056603533,5.0,146.859985
792,26.964458698535207,0.8291174331935058,26.794228529983847,0.23647582211673707,5.0,146.859985
793,26.99850473224548,0.480114514360985,26.82827456369412,-0.025831326519585238,5.0,146.859985
794,27.03255076595575,0.10946461821934338,26.86232059740439,-0.2954321606552645,5.0,146.859985
795,27.066596799666023,-0.2540491614361364,26.896366631114663,-0.51391248081555,5.0,146.859985
796,27.100642833376295,-0.5994786786650504,26.930412664824935,-0.6671841942412985,5.0,146.859985
797,27.134688867086567,-0.9329806646227332,26.964458698535207,-0.7887393323750976,5.0,146.859985
798,27.16873490079684,-1.2547337318604832,26.99850473224548,-0.9315327239848648,5.0,146.859985
799,27.202780934507107,-1.5280228311502215,27.032550765955747,-1.1224820181447097,5.0,146.859985
800,27.23682696821738,-1.6701067657998354,27.06659679966602,-1.32489791748222,5.0,146.859985
801,27.27087300192765,-1.583481453039672,27.10064283337629,-1.4349804645951307,5.0,146.859985
802,27.304919035637923,-1.2149955106537451,27.134688867086563,-1.3242009451588284,5.0,146.859985
803,27.338965069348195,-0.6054687418250058,27.168734900796835,-0.9126407834579437,5.0,146.859985
804,27.373011103058467,0.10507651014607747,27.202780934507107,-0.23331085578189353,5.0,146.859985
805,27.40705713676874,0.72498602326659,27.23682696821738,0.5561728299008694,5.0,146.859985
806,27.44110317047901,1.089608676989727,27.27087300192765,1.2313699284277784,5.0,146.859985
807,27.475149204189282,1.1323973720172273,27.304919035637923,1.6017053812470818,5.0,146.859985
808,27.509195237899554,0.9118435748698305,27.338965069348195,1.5978112805993854,5.0,146.859985
809,27.543241271609826,0.5780909189990139,27.373011103058467,1.2958744761509036,5.0,146.859985
810,27.577287305320098,0.29558508834041725,27.40705713676874,0.8681396715480304,5.0,146.859985
811,27.61133333903037,0.16480035256735798,27.44110317047901,0.4921562660083351,5.0,146.859985
812,27.645379372740642,0.18660262860475335,27.475149204189282,0.2709641696474217,5.0,146.859985
813,27.679425406450914,0.28408740507177643,27.509195237899554,0.2033107071593175,5.0,146.859985
814,27.713471440161186,0.3597646791487731,27.543241271609826,0.2103373991086431,5.0,146.859985
815,27.747517473871458,0.3490150468524294,27.577287305320098,0.19483537234032783,5.0,146.859985
816,27.781563507581726,0.24276914825729404,27.611333339030367,0.09676780588985812,5.0,146.859985
817,27.815609541291998,0.07622503986231456,27.64537937274064,-0.08289220509832886,5.0,146.859985
818,27.84965557500227,-0.10353048843008977,27.67942540645091,-0.29689669697078097,5.0,146.859985
819,27.883701608712542,-0.2717522608949752,27.713471440161182,-0.4906305090873412,5.0,146.859985
820,27.917747642422814,-0.44125046273276514,27.747517473871454,-0.6395142553957496,5.0,146.859985
821,27.951793676133086,-0.6453693309869918,27.781563507581726,-0.762009721342421,5.0,146.859985
822,27.985839709843358,-0.8969231217577494,27.815609541291998,-0.899782710534062,5.0,146.859985
823,28.01988574355363,-1.1535303274911832,27.84965557500227,-1.0758043436665736,5.0,146.859985
824,28.0539317772639,-1.320184203917402,27.883701608712542,-1.256179886532413,5.0,146.859985
825,28.087977810974174,-1.2931017906199838,27.917747642422814,-1.3437646073830751,5.0,146.859985
826,28.122023844684445,-1.0172184702936506,27.951793676133086,-1.2169091770570442,5.0,146.859985
827,28.156069878394717,-0.5205131707252094,27.985839709843358,-0.7994621793280433,5.0,146.859985
828,28.19011591210499,0.09391026148990504,28.01988574355363,-0.12322958152071813,5.0,146.859985
829,28.22416194581526,0.6903289088909463,28.0539317772639,0.6597661381053561,5.0,146.859985
830,28.258207979525533,1.1522266219311266,28.087977810974174,1.3321193762640267,5.0,146.859985
831,28.292254013235805,1.4161945603059638,28.122023844684445,1.7077342052255795,5.0,146.859985
832,28.326300046946077,1.4740977111320233,28.156069878394717,1.716074755367216,5.0,146.859985
833,28.36034608065635,1.3525826723015013,28.19011591210499,1.4261106006609199,5.0,146.859985
834,28.394392114366617,1.0943148125208575,28.224161945815258,0.9997240556483993,5.0,146.859985
835,28.42843814807689,0.7563941404267539,28.2922540132358,0.3458513172966281,4.0,117.487988
836,28.46248418178716,0.41613908282760975,28.326300046946074,0.22465199282230003,4.0,117.487988
837,28.496530215497433,0.16178468859527703,28.360346080656345,0.176904348862927,4.0,117.487988
838,28.530576249207705,0.05992137920103976,28.394392114366617,0.12071072307740807,4.0,117.487988
839,28.564622282917977,0.11627239105158917,28.42843814807689,0.0062971264976702575,4.0,117.487988
840,28.59866831662825,0.25735675650853507,28.46248418178716,-0.1666871303400409,4.0,117.487988
841,28.63271435033852,0.3499219360418166,28.496530215497433,-0.36669630787366475,4.0,117.487988
842,28.666760384048793,0.25331698093786753,28.530576249207705,-0.5647241368896372,4.0,117.487988
843,28.700806417759065,-0.11653268846108718,28.564622282917977,-0.7583810618816714,4.0,117.487988
844,28.734852451469337,-0.7371220857045613,28.59866831662825,-0.9662410512550429,4.0,117.487988
845,28.76889848517961,-1.4654080064193482,28.63271435033852,-1.194333190818555,4.0,117.487988
846,28.80294451888988,-2.0742191159613137,28.666760384048793,-1.3990571487504975,4.0,117.487988
847,28.836990552600152,-2.3365409872731497,28.700806417759065,-1.4791946549627155,4.0,117.487988
848,28.871036586310424,-2.1274405469036086,28.734852451469337,-1.3151392041095662,4.0,117.487988
849,28.905082620020696,-1.4907837425642978,28.76889848517961,-0.8415150674650416,4.0,117.487988
850,28.939128653730968,-0.6265852345914139,28.80294451888988,-0.11010426993688714,4.0,117.487988
851,28.973174687441237,0.20036223048896804,28.83699055260015,0.7034575648288782,4.0,117.487988
852,29.00722072115151,0.7802940169928967,28.87103658631042,1.36524819774649,4.0,117.487988
853,29.04126675486178,1.0404768279786212,28.905082620020693,1.6897483287190331,4.0,117.487988
854,29.075312788572052,1.0498277088987824,28.939128653730965,1.626149225791236,4.0,117.487988
855,29.109358822282324,0.9537839626605694,28.973174687441237,1.2732854173811756,4.0,117.487988
856,29.143404855992596,0.8847456385250452,29.00722072115151,0.8173346549437567,4.0,117.487988
857,29.177450889702868,0.9005327337077508,29.04126675486178,0.433647434737956,4.0,117.487988
858,29.21149692341314,0.9774898401372569,29.075312788572052,0.21091255608175907,4.0,117.487988
859,29.245542957123412,1.046287986067541,29.109358822282324,0.1344164464478991,4.0,117.487988
860,29.279588990833684,1.0363013622527033,29.143404855992596,0.1246248109373408,4.0,117.487988
861,29.313635024543956,0.90175016184974,29.177450889702868,0.09635492891143443,4.0,117.487988
862,29.347681058254228,0.6263455208207298,29.21149692341314,6.977011283613134e-05,4.0,117.487988
863,29.3817270919645,0.219553631366086,29.245542957123412,-0.17221275168915465,4.0,117.487988
864,29.41577312567477,-0.2833201098978198,29.279588990833684,-0.4059673269616156,4.0,117.487988
865,29.449819159385044,-0.8159724578759923,30.028601732459663,-0.8950263044441666,-17.0,-499.323949
866,29.483865193095316,-1.279977327089656,30.062647766169935,-1.2710535373649106,-17.0,-499.323949
867,29.517911226805587,-1.5604848774208113,30.096693799880207,-1.5313566691123888,-17.0,-499.323949
868,29.55195726051586,-1.5638693697783834,30.13073983359048,-1.5475683967213871,-17.0,-499.323949
869,29.586003294226128,-1.263838506175405,30.164785867300747,-1.231329830280714,-17.0,-499.323949
870,29.6200493279364,-0.7269057363897458,29.483865193095312,-0.9692049381009307,4.0,117.487988
871,29.65409536164667,-0.09407855169151709,29.517911226805584,-0.34772173518877625,4.0,117.487988
872,29.688141395356944,0.4764037259876545,29.551957260515856,0.40173459947035406,4.0,117.487988
873,29.722187429067215,0.8727400044840843,29.586003294226128,1.068325259450584,4.0,117.487988
874,29.756233462777487,1.0625073084133632,29.6200493279364,1.4586281781038373,4.0,117.487988
875,29.79027949648776,1.0796112104433118,29.65409536164667,1.4864389562727713,4.0,117.487988
876,29.82432553019803,0.9818459660526312,29.688141395356944,1.2080336712935502,4.0,117.487988
877,29.858371563908303,0.8134003087318461,29.722187429067215,0.7833306618961743,4.0,117.487988
878,29.892417597618575,0.5965083516551529,29.756233462777487,0.38953713659233447,4.0,117.487988
879,29.926463631328847,0.3483033658340762,29.79027949648776,0.13951369298880165,4.0,117.487988
880,29.96050966503912,0.0979884058993847,30.539292238113738,0.09808801974043872,-17.0,-499.323949
881,29.99455569874939,-0.11746585567349822,30.57333827182401,-0.013907121471085433,-17.0,-499.323949
882,30.028601732459663,-0.27864775064563363,29.892417597618575,0.04799951115347692,4.0,117.487988
883,30.062647766169935,-0.407474495809669,29.926463631328847,-0.027497771090231986,4.0,117.487988
884,30.096693799880207,-0.562239551076495,29.96050966503912,-0.21649228751222363,4.0,117.487988
885,30.13073983359048,-0.7951147865727174,29.99455569874939,-0.5180215557993311,4.0,117.487988
886,30.164785867300747,-1.0950840260178072,30.02860173245966,-0.8950263044441273,4.0,117.487988
887,30.19883190101102,-1.361386739924001,30.777614474085638,-1.6926814745981087,-17.0,-499.323949
888,30.23287793472129,-1.4407241769585433,30.81166050779591,-1.6395079217417245,-17.0,-499.323949
889,30.266923968431563,-1.2157522397115677,30.845706541506182,-1.2456958540843641,-17.0,-499.323949
890,30.300970002141835,-0.6875427204987612,30.879752575216454,-0.5352852437576874,-17.0,-499.323949
891,30.335016035852107,0.008089869195372024,30.913798608926726,0.3435709518275575,-17.0,-499.323949
892,30.36906206956238,0.6652828229880706,30.23287793472129,0.22880176465989926,4.0,117.487988
893,30.40310810327265,1.1117451665770908,30.266923968431563,1.0158095989294993,4.0,117.487988
894,30.437154136982922,1.285184564834242,30.300970002141835,1.5515203466375145,4.0,117.487988
895,30.471200170693194,1.240253299243788,30.335016035852107,1.7200876096407989,4.0,117.487988
896,30.505246204403466,1.0919982122158152,30.36906206956238,1.547565149106975,4.0,117.487988
897,30.539292238113738,0.9382492145041554,30.40310810327265,1.1709003894785461,4.0,117.487988
898,30.57333827182401,0.8088396530164914,30.437154136982922,0.7582569277546971,4.0,117.487988
899,30.607384305534282,0.6672372448563054,30.471200170693194,0.43033912109535677,4.0,117.487988
900,30.641430339244554,0.45519265183967644,30.505246204403466,0.22279560738286097,4.0,117.487988
901,30.675476372954826,0.14457222274033887,30.539292238113738,0.09808801974043872,4.0,117.487988
902,30.709522406665098,-0.23880810309548398,30.57333827182401,-0.013907121471085433,4.0,117.487988
903,30.74356844037537,-0.6285254985043869,30.607384305534282,-0.17612847361549225,4.0,117.487988
904,30.777614474085638,-0.9499548439000626,30.64143033924455,-0.42275335150875437,4.0,117.487988
905,30.81166050779591,-1.1467061930549916,30.675476372954822,-0.7536303664238091,4.0,117.487988
906,30.845706541506182,-1.1889128128088629,30.709522406665094,-1.1324602812393836,4.0,117.487988
907,30.879752575216454,-1.068723473425583,30.743568440375366,-1.4830071554943258,4.0,117.487988
908,30.913798608926726,-0.7975769446987985,30.777614474085638,-1.6926814745981087,4.0,117.487988
909,30.947844642636998,-0.4148516485589658,30.81166050779591,-1.6395079217417245,4.0,117.487988
910,30.98189067634727,-0.0003202335144759571,30.845706541506182,-1.2456958540843641,4.0,117.487988
911,31.01593671005754,0.33249630130400404,30.879752575216454,-0.5352852437576874,4.0,117.487988
912,31.049982743767814,0.4785401341348193,30.913798608926726,0.3435709518275575,4.0,117.487988
913,31.084028777478085,0.40419780312874803,30.947844642636998,1.1594683921072853,4.0,117.487988
914,31.118074811188357,0.18617857249295167,30.98189067634727,1.6912563484016743,4.0,117.487988
915,31.15212084489863,-0.014723565910430265,31.01593671005754,1.8253827206028113,4.0,117.487988
916,31.1861668786089,-0.04276988049394097,31.049982743767814,1.6007074654939777,4.0,117.487988
917,31.220212912319173,0.1547263043538446,31.084028777478085,1.1754706840052764,4.0,117.487988
918,31.254258946029445,0.4908061887468079,31.118074811188357,0.7386749639867044,4.0,117.487988
919,31.288304979739717,0.7938000042652935,31.15212084489863,0.419204420605588,4.0,117.487988
920,31.32235101344999,0.9150275937011059,31.1861668786089,0.24192254385954412,4.0,117.487988
921,31.356397047160257,0.8117515114846349,31.22021291231917,0.1468588386793977,4.0,117.487988
922,31.39044308087053,0.553066245540873,31.25425894602944,0.04878032828418015,4.0,117.487988
923,31.4244891145808,0.2583727945623856,32.00327168765542,0.2671225483323702,-17.0,-499.323949
924,31.458535148291073,0.02084875009045513,32.037317721365696,0.11666531648097035,-17.0,-499.323949
925,31.492581182001345,-0.13470911410606504,32.071363755075964,-0.12002056751343797,-17.0,-499.323949
926,31.526627215711617,-0.2430562112227106,31.39044308087053,-0.7983154431272032,4.0,117.487988
927,31.56067324942189,-0.3554947526462029,31.4244891145808,-1.0428581248046107,4.0,117.487988
928,31.59471928313216,-0.49542905725654796,31.458535148291073,-1.3018195332274003,4.0,117.487988
929,31.628765316842433,-0.6397233490427932,31.492581182001345,-1.5558978008100726,4.0,117.487988
930,31.662811350552705,-0.7334279124522819,31.526627215711617,-1.7241965953033864,4.0,117.487988
931,31.696857384262977,-0.724897880916253,32.275639957337596,-1.3681001563263273,-17.0,-499.323949
932,31.73090341797325,-0.5979363586020396,31.59471928313216,-1.300883677596283,4.0,117.487988
933,31.76494945168352,-0.3812537676516422,31.628765316842433,-0.5799386023720934,4.0,117.487988
934,31.798995485393792,-0.13114728653337826,31.662811350552705,0.3559395272592935,4.0,117.487988
935,31.833041519104064,0.09794187575991546,31.696857384262977,1.2634568003677702,4.0,117.487988
936,31.867087552814336,0.2731611103557127,31.73090341797325,1.8882431567128521,4.0,117.487988
937,31.901133586524608,0.3832063527991701,32.47991615959923,0.9046590948171715,-17.0,-499.323949
938,31.93517962023488,0.427364937255487,32.5139621933095,1.6587142771634569,-17.0,-499.323949
939,31.96922565394515,0.4094678777098246,32.54800822701977,2.012687599461644,-17.0,-499.323949
940,32.00327168765542,0.3427979883767062,32.58205426073004,1.9173693067356088,-17.0,-499.323949
941,32.037317721365696,0.25710719817040095,32.616100294440315,1.498348445048234,-17.0,-499.323949
942,32.071363755075964,0.1932912874001684,32.65014632815058,0.9781700661415679,-17.0,-499.323949
943,32.10540978878624,0.18153807839076244,32.68419236186086,0.5581049500179868,-17.0,-499.323949
944,32.13945582249651,0.21753194945969978,32.71823839557113,0.3288889855847006,-17.0,-499.323949
945,32.173501856206784,0.2589199039768071,32.7522844292814,0.25477483734851947,-17.0,-499.323949
946,32.20754788991705,0.2488758097843435,32.78633046299167,0.22708279560477285,-17.0,-499.323949
947,32.24159392362733,0.1495726428773622,32.07136375507597,-0.1200205675134948,5.0,146.859985
948,32.275639957337596,-0.039112906001526414,32.10540978878624,-0.3923171274474921,5.0,146.859985
949,32.309685991047864,-0.28557941533707815,32.13945582249651,-0.6365615146028655,5.0,146.859985
950,32.34373202475814,-0.5468585512937507,32.173501856206784,-0.8239227429516176,5.0,146.859985
951,32.37777805846841,-0.7852178688105029,32.95656063154303,-0.7202019087647551,-17.0,-499.323949
952,32.41182409217868,-0.9710592458506824,33.36511303606629,1.5831333049186962,-28.0,-822.415916
953,32.44587012588895,-1.0766192441669358,32.275639957337596,-1.3681001563263273,5.0,146.859985
954,32.47991615959923,-1.0725461213462713,32.30968599104787,-1.5792954300383442,5.0,146.859985
955,32.513962193309496,-0.9344840600594321,32.34373202475814,-1.6584348828918496,5.0,146.859985
956,32.54800822701977,-0.6556217187333829,32.377778058468415,-1.4569046131442625,5.0,146.859985
957,32.58205426073004,-0.25565612836098317,32.41182409217868,-0.8954927185982133,5.0,146.859985
958,32.616100294440315,0.218706494208272,32.44587012588896,-0.03820275296698354,5.0,146.859985
959,32.65014632815058,0.6999296406689784,32.47991615959923,0.9046590948171715,5.0,146.859985
960,32.68419236186086,1.1108267326087573,32.5139621933095,1.6587142771634569,5.0,146.859985
961,32.71823839557113,1.3817948632987167,32.88846856412248,-0.2675553490028747,-5.0,-146.859985
962,32.7522844292814,1.471147084048094,32.92251459783276,-0.5091258014954171,-5.0,-146.859985
963,32.78633046299167,1.3778726026569854,32.95656063154303,-0.7202019087647551,-5.0,-146.859985
964,32.82037649670195,1.137830594606183,32.956560631543034,-0.720201908764795,-4.0,-117.487988
965,32.854422530412215,0.8074332181218886,32.68419236186086,0.5581049500179868,5.0,146.859985
966,32.88846856412248,0.44777641845354127,32.71823839557113,0.3288889855847006,5.0,146.859985
967,32.92251459783276,0.11594689458977808,32.7522844292814,0.25477483734851947,5.0,146.859985
968,32.95656063154303,-0.1405019507088023,32.78633046299167,0.22708279560477285,5.0,146.859985
969,32.9906066652533,-0.29049842723134606,32.82037649670195,0.1445379139621055,5.0,146.859985
970,33.02465269896357,-0.3268150060739368,32.854422530412215,-0.03042558807028265,5.0,146.859985
971,33.05869873267385,-0.2720540437567885,32.88846856412249,-0.2675553490029251,5.0,146.859985
972,33.092744766384115,-0.18201081338379288,32.92251459783276,-0.5091258014954171,5.0,146.859985
973,33.12679080009439,-0.13894078262408271,32.956560631543034,-0.720201908764795,5.0,146.859985
974,33.16083683380466,-0.2227563750575404,32.9906066652533,-0.911215533538875,5.0,146.859985
975,33.194882867514934,-0.4617328117123916,33.02465269896358,-1.11614534943648,5.0,146.859985
976,33.2289289012252,-0.7919566654888079,33.092744766384115,-1.5242098474812567,4.0,117.487988
977,33.26297493493548,-1.0671370803888922,33.12679080009439,-1.537774869133939,4.0,117.487988
978,33.29702096864575,-1.1333256382457406,33.16083683380466,-1.2542956531613079,4.0,117.487988
979,33.33106700235602,-0.9299213762072354,33.194882867514934,-0.6340866092281475,4.0,117.487988
980,33.36511303606629,-0.5445476063702868,33.2289289012252,0.2162445147608473,4.0,117.487988
981,33.399159069776566,-0.1713818942321745,33.26297493493548,1.0643558885440698,4.0,117.487988
982,33.433205103486834,0.009140517209416608,33.29702096864575,1.651943394009565,4.0,117.487988
983,33.4672511371971,-0.05144973820150172,33.331067002356015,1.8198317110219404,4.0,117.487988
984,33.50129717090738,-0.23891313718231605,33.36511303606629,1.5831333049186962,4.0,117.487988
985,33.53534320461765,-0.3566855029881947,33.39915906977656,1.1112947384359195,4.0,117.487988
986,33.56938923832792,-0.25914858000275554,33.433205103486834,0.6288581332719339,4.0,117.487988
987,33.60343527203819,0.05701220703914602,33.4672511371971,0.3008200593251951,4.0,117.487988
988,33.637481305748466,0.4616927134101095,33.50129717090738,0.16900558147436617,4.0,117.487988
989,33.671527339458734,0.7834614207031211,33.53534320461765,0.16542047418348113,4.0,117.487988
990,33.70557337316901,0.9142600219117054,33.56938923832792,0.17769724948466153,4.0,117.487988
991,33.73961940687928,0.858268858090727,33.60343527203819,0.11612980711904622,4.0,117.487988
992,33.773665440589554,0.7033100767528667,33.637481305748466,-0.05569968885422003,4.0,117.487988
993,33.80771147429982,0.5468856935283043,33.671527339458734,-0.3297190363985783,4.0,117.487988
994,33.8417575080101,0.43329372728123766,33.70557337316901,-0.6760420038032215,4.0,117.487988
995,33.875803541720366,0.3411404545400221,33.73961940687928,-1.051675134308509,4.0,117.487988
996,33.90984957543064,0.2199720125949935,33.773665440589554,-1.3894660389888651,4.0,117.487988
997,33.94389560914091,0.04219596536161101,33.80771147429982,-1.587739597190732,4.0,117.487988
998,33.977941642851185,-0.168025903047626,33.8417575080101,-1.5284697037924597,4.0,117.487988
999,34.01198767656145,-0.3463689949154939,33.875803541720366,-1.1317528508910077,4.0,117.487988
1000,34.04603371027172,-0.42887886699973393,33.909849575430634,-0.4202914154612555,4.0,117.487988
1001,34.080079743982,-0.3910966277664934,33.94389560914091,0.45280010346034105,4.0,117.487988
1002,34.114125777692266,-0.2582988491699418,33.97794164285118,1.2453784529032756,4.0,117.487988
1003,34.14817181140254,-0.08253459180051224,34.01198767656145,1.7257514558070655,4.0,117.487988
1004,34.18221784511281,0.09140956876382762,34.04603371027172,1.777170124548814,4.0,117.487988
1005,34.216263878823085,0.2416015069745106,34.080079743982,1.4467755204378658,4.0,117.487988
1006,34.25030991253335,0.3560854829070185,34.114125777692266,0.9121529577512998,4.0,117.487988
1007,34.28435594624363,0.4106412328781338,34.14817181140254,0.38861414708406833,4.0,117.487988
1008,34.3184019799539,0.3661662980771102,34.454586114794985,-1.5033332903038317,-4.0,-117.487988
1009,34.35244801366417,0.19396759303168287,34.48863214850526,-1.6186337038593632,-4.0,-117.487988
1010,34.38649404737444,-0.0930199715172759,34.52267818221553,-1.3801124364790058,-4.0,-117.487988
1011,34.42054008108472,-0.4330113128230242,34.556724215925804,-0.7725375123687224,-4.0,-117.487988
1012,34.454586114794985,-0.7401022767832246,34.3184019799539,-0.1561886149034352,4.0,117.487988
1013,34.48863214850526,-0.9405829015588507,34.35244801366417,-0.3702751885115123,4.0,117.487988
1014,34.52267818221553,-0.993754097111677,34.38649404737444,-0.7297028868636347,4.0,117.487988
1015,34.556724215925804,-0.889292880932161,35.101460755290155,-1.4002519781057785,-16.0,-469.951952
1016,34.59077024963607,-0.6362792216615425,35.135506789000424,-1.5954265207704208,-16.0,-469.951952
1017,34.62481628334635,-0.26200082294853627,35.1695528227107,-1.4622496271539007,-16.0,-469.951952
1018,34.65886231705662,0.1791087994830993,35.20359885642097,-0.9494618381846818,-16.0,-469.951952
1019,34.692908350766885,0.602914299875595,34.82909248560797,0.16680328997807745,-4.0,-117.487988
1020,34.72695438447716,0.9135816101380858,34.86313851931825,-0.06687341342984197,-4.0,-117.487988
1021,34.76100041818743,1.0387832557103616,34.89718455302852,-0.1260908403959936,-4.0,-117.487988
1022,34.795046451897704,0.9634694861596461,34.93123058673879,-0.11048856795391439,-4.0,-117.487988
1023,34.82909248560797,0.7412926335018777,34.96527662044906,-0.13876985404325684,-4.0,-117.487988
1024,34.86313851931825,0.4727334223458991,35.6461972946545,-0.25371463454664245,-23.0,-675.555931
1025,34.89718455302852,0.25662179091913145,35.68024332836477,-0.5106559068755386,-23.0,-675.555931
1026,34.93123058673879,0.1398775929855232,35.71428936207504,-0.8732668009857443,-23.0,-675.555931
1027,34.96527662044906,0.09626905289165387,35.74833539578531,-1.23432798091897,-23.0,-675.555931
1028,34.999322654159336,0.049236739914887216,35.135506789000424,-1.5954265207704208,-4.0,-117.487988
1029,35.033368687869604,-0.07597105832251949,35.16955282271069,-1.4622496271540077,-4.0,-117.487988
1030,35.06741472157988,-0.30646875677719215,35.20359885642097,-0.9494618381846818,-4.0,-117.487988
1031,35.10146075529015,-0.6116160635954725,35.237644890131236,-0.1427571738791762,-4.0,-117.487988
1032,35.135506789000424,-0.9286720439126177,35.27169092384151,0.7455998277981061,-4.0,-117.487988
1033,35.16955282271069,-1.1961881296871169,35.30573695755178,1.453946423047596,-4.0,-117.487988
1034,35.20359885642097,-1.3664959286498297,35.339782991262055,1.782155024724185,-4.0,-117.487988
1035,35.237644890131236,-1.3972947466995254,35.37382902497232,1.67714117959222,-4.0,-117.487988
1036,35.271690923841504,-1.2487293547347398,34.52267818221553,-1.3801124364790058,22.0,646.183934
1037,35.30573695755178,-0.904647280920171,34.556724215925804,-0.7725375123687224,22.0,646.183934
1038,35.33978299126205,-0.403827476738964,34.59077024963607,0.08171037418889955,22.0,646.183934
1039,35.37382902497232,0.15250660608695094,34.86313851931825,-0.06687341342984197,15.0,440.579955
1040,35.40787505868259,0.6355970230356374,35.54405919352368,-0.157003033599622,-4.0,-117.487988
1041,35.44192109239287,0.9507945669608543,35.578105227233955,-0.14226382343049768,-4.0,-117.487988
1042,35.475967126103136,1.086175899374265,35.61215126094422,-0.1425195032207627,-4.0,-117.487988
1043,35.51001315981341,1.1133886594664077,35.6461972946545,-0.25371463454664245,-4.0,-117.487988
1044,35.54405919352368,1.1368740940694322,35.68024332836477,-0.5106559068755386,-4.0,-117.487988
1045,35.578105227233955,1.2227335511559845,35.71428936207504,-0.8732668009857443,-4.0,-117.487988
1046,35.61215126094422,1.353161627364604,35.74833539578531,-1.23432798091897,-4.0,-117.487988
1047,35.6461972946545,1.4362022862619515,35.54405919352369,-0.15700303359961892,3.0,88.11599100000001
1048,35.68024332836477,1.364035093016199,35.578105227233955,-0.14226382343049768,3.0,88.11599100000001
1049,35.71428936207504,1.080609365790585,35.61215126094423,-0.1425195032207859,3.0,88.11599100000001
1050,35.74833539578531,0.6145492919086963,35.6461972946545,-0.25371463454664245,3.0,88.11599100000001
1051,35.78238142949559,0.06076573742135401,35.680243328364774,-0.5106559068756144,3.0,88.11599100000001
1052,35.816427463205855,-0.46749638659078957,35.71428936207504,-0.8732668009857443,3.0,88.11599100000001
1053,35.85047349691612,-0.8790266862541922,35.74833539578531,-1.23432798091897,3.0,88.11599100000001
1054,35.8845195306264,-1.1196596621786223,35.78238142949559,-1.4483328856082016,3.0,88.11599100000001
1055,35.91856556433667,-1.1726157192156796,35.816427463205855,-1.3811289289870285,3.0,88.11599100000001
1056,35.95261159804694,-1.059437024852784,35.85047349691613,-0.9704696710967187,3.0,88.11599100000001
1057,35.98665763175721,-0.8389539004738016,35.8845195306264,-0.27218625879287606,3.0,88.11599100000001
1058,36.02070366546749,-0.5917938341552568,35.918565564336674,0.5391540454949996,3.0,88.11599100000001
1059,36.054749699177755,-0.39056919517970157,35.95261159804694,1.2290948951754244,3.0,88.11599100000001
1060,36.08879573288803,-0.27240208373965,35.98665763175722,1.6004388593784105,3.0,88.11599100000001
1061,36.1228417665983,-0.2300293907805313,36.02070366546749,1.578589017848852,3.0,88.11599100000001
1062,36.156887800308574,-0.22449146562711186,36.05474969917776,1.2370746434547644,3.0,88.11599100000001
1063,36.19093383401884,-0.2114830154244045,36.08879573288803,0.750363320575841,3.0,88.11599100000001
1064,36.22497986772912,-0.1689018143968846,36.122841766598306,0.30447586148890443,3.0,88.11599100000001
1065,36.25902590143939,-0.11196063422665459,36.156887800308574,0.016706436421659906,3.0,88.11599100000001
1066,36.29307193514966,-0.08607716182385877,36.19093383401885,-0.09761020680560845,3.0,88.11599100000001
1067,36.32711796885993,-0.13888623744382475,36.25902590143939,-0.11230571859892494,2.0,58.743994
1068,36.361164002570206,-0.28565667955022866,36.29307193514966,-0.20442176579273574,2.0,58.743994
1069,36.395210036280474,-0.48799714481251955,36.29307193514966,-0.20442176579273574,3.0,88.11599100000001
1070,36.42925606999075,-0.6604250488223987,36.32711796885994,-0.42509223375588584,3.0,88.11599100000001
1071,36.46330210370102,-0.705701877728609,36.361164002570206,-0.7554828129031993,3.0,88.11599100000001
1072,36.49734813741129,-0.5630960098632555,36.395210036280474,-1.1149375851555456,3.0,88.11599100000001
1073,36.53139417112156,-0.24306843854770943,36.42925606999075,-1.3761429279668995,3.0,88.11599100000001
1074,36.56544020483183,0.17298409923894628,36.46330210370102,-1.4021228637344203,3.0,88.11599100000001
1075,36.599486238542106,0.5688802915419972,36.497348137411294,-1.1030732998169237,3.0,88.11599100000001
1076,36.633532272252374,0.844775195649908,36.53139417112156,-0.4920167134196604,3.0,88.11599100000001
1077,36.66757830596265,0.9549630122130885,36.56544020483184,0.2949142337255708,3.0,88.11599100000001
1078,36.70162433967292,0.9155176227642171,36.599486238542106,1.0374381018643484,3.0,88.11599100000001
1079,36.73567037338319,0.7840619052188533,36.63353227225238,1.5195774101467645,3.0,88.11599100000001
1080,36.76971640709346,0.6264947838917682,36.66757830596265,1.6232823508877308,3.0,88.11599100000001
1081,36.80376244080374,0.4880100900891797,36.701624339672925,1.3749031565027794,3.0,88.11599100000001
1082,36.837808474514006,0.38205565815980613,36.73567037338319,0.9193991306198478,3.0,88.11599100000001
1083,36.87185450822428,0.3014464623174901,36.76971640709347,0.4408770261325935,3.0,88.11599100000001
1084,36.90590054193455,0.24135075905611345,36.80376244080374,0.0774204940575944,3.0,88.11599100000001
1085,36.939946575644825,0.21357780416665564,36.83780847451401,-0.12513289906737907,3.0,88.11599100000001
1086,36.97399260935509,0.23671523778945008,36.87185450822428,-0.2054153813710902,3.0,88.11599100000001
1087,37.00803864306537,0.3066472292222575,36.90590054193456,-0.24268415309212035,3.0,88.11599100000001
1088,37.04208467677564,0.3723241505581022,36.939946575644825,-0.30997146430062683,3.0,88.11599100000001
1089,37.076130710485906,0.34422177944236,36.97399260935509,-0.44853998582095417,3.0,88.11599100000001
1090,37.11017674419618,0.14100272139988965,37.00803864306537,-0.6658854726641065,3.0,88.11599100000001
1091,37.14422277790645,-0.2514876246048016,37.04208467677564,-0.9422207567230374,3.0,88.11599100000001
1092,37.178268811616725,-0.7487990835718693,37.07613071048591,-1.230442962240391,3.0,88.11599100000001
1093,37.21231484532699,-1.1889228754878094,37.11017674419618,-1.4502855089585254,3.0,88.11599100000001
1094,37.24636087903727,-1.3998924779729618,37.14422277790646,-1.4936393891649342,3.0,88.11599100000001
1095,37.28040691274754,-1.281266286057954,37.178268811616725,-1.2578472534905436,3.0,88.11599100000001
1096,37.31445294645781,-0.8562313642142599,37.212314845327,-0.7026962069713206,3.0,88.11599100000001
1097,37.34849898016808,-0.26362974835495995,37.24636087903727,0.10038869063465009,3.0,88.11599100000001
1098,37.38254501387836,0.3073419635971913,37.280406912747544,0.9670787114134209,3.0,88.11599100000001
1099,37.416591047588625,0.7027203569634493,37.31445294645781,1.663310991963775,3.0,88.11599100000001
1100,37.4506370812989,0.862271308142977,37.34849898016809,2.0064298475603404,3.0,88.11599100000001
1101,37.48468311500917,0.823207208420385,37.38254501387836,1.9478730263397674,3.0,88.11599100000001
1102,37.518729148719444,0.6755093129870958,37.41659104758863,1.5887828401032984,3.0,88.11599100000001
1103,37.55277518242971,0.5017046160826111,37.4506370812989,1.1206751740361183,3.0,88.11599100000001
1104,37.58682121613999,0.338259876182402,37.484683115009176,0.727439054583981,3.0,88.11599100000001
1105,37.62086724985026,0.1773487472293197,37.518729148719444,0.5034156715658439,3.0,88.11599100000001
1106,37.654913283560525,-0.00029824821858989497,37.55277518242971,0.42715351723941375,3.0,88.11599100000001
1107,37.6889593172708,-0.19026242463432208,37.58682121613999,0.3957090570056225,3.0,88.11599100000001
1108,37.72300535098107,-0.35459453290681503,37.62086724985026,0.2927764620510709,3.0,88.11599100000001
1109,37.757051384691344,-0.44385412240620115,37.65491328356053,0.051940694414430895,3.0,88.11599100000001
1110,37.79109741840161,-0.4325095049651773,37.6889593172708,-0.3138275858049342,3.0,88.11599100000001
1111,37.82514345211189,-0.3403755775292231,37.723005350981076,-0.7239614311435588,3.0,88.11599100000001
1112,37.85918948582216,-0.2266214578413825,37.757051384691344,-1.0717169071621329,3.0,88.11599100000001
1113,37.89323551953243,-0.16400190404143064,37.79109741840162,-1.2743556587558782,3.0,88.11599100000001
1114,37.9272815532427,-0.2095768788140599,37.82514345211189,-1.3113886260943144,3.0,88.11599100000001
1115,37.961327586952976,-0.38231791545154076,37.859189485822164,-1.2354428614252466,3.0,88.11599100000001
1116,37.995373620663244,-0.6509236957496202,37.89323551953243,-1.148581326763301,3.0,88.11599100000001
1117,38.02941965437352,-0.9346826614594131,37.92728155324271,-1.1491024391401883,3.0,88.11599100000001
1118,38.06346568808379,-1.1215825699205444,37.961327586952976,-1.2693033318404028,3.0,88.11599100000001
1119,38.09751172179406,-1.1045210247484865,37.99537362066325,-1.4366679219697143,3.0,88.11599100000001
1120,38.13155775550433,-0.8272909435538608,38.02941965437352,-1.4885036732607706,3.0,88.11599100000001
1121,38.16560378921461,-0.320580201400847,38.063465688083795,-1.246682761389979,3.0,88.11599100000001
1122,38.199649822924876,0.29628485405482424,38.06346568808379,-1.2466827613901093,4.0,117.487988
1123,38.233695856635144,0.8586123152643784,38.097511721794056,-0.6221451959554737,4.0,117.487988
1124,38.26774189034542,1.2267780460450726,38.13155775550433,0.3094761734906603,4.0,117.487988
1125,38.30178792405569,1.34498776786012,38.1656037892146,1.31443623205968,4.0,117.487988
1126,38.33583395776596,1.255921748421242,38.199649822924876,2.098233831072581,4.0,117.487988
1127,38.36987999147623,1.0669584447392548,38.233695856635144,2.443829174508185,4.0,117.487988
1128,38.40392602518651,0.8914363059559863,38.26774189034542,2.3111044528670477,4.0,117.487988
1129,38.437972058896776,0.7984821141753735,38.30178792405569,1.8412209866351517,4.0,117.487988
1130,38.47201809260705,0.7937255872442479,38.33583395776596,1.2693387513973395,4.0,117.487988
1131,38.50606412631732,0.8307880719143992,38.36987999147623,0.802475865515194,4.0,117.487988
1132,38.540110160027595,0.837858078940041,38.40392602518651,0.5320201931907685,4.0,117.487988
1133,38.57415619373786,0.7453034301172848,38.437972058896776,0.4206712274133946,4.0,117.487988
1134,38.60820222744814,0.5104174529528333,38.47201809260705,0.3565284103902104,4.0,117.487988
1135,38.64224826115841,0.13786947424426726,38.50606412631732,0.23287851953026198,4.0,117.487988
1136,38.67629429486868,-0.31308845891998216,38.540110160027595,0.007046862502794595,4.0,117.487988
1137,38.71034032857895,-0.7468494980299498,38.57415619373786,-0.28815134557893324,4.0,117.487988
1138,38.74438636228923,-1.0740606715356007,38.60820222744814,-0.5774053522263721,4.0,117.487988
1139,38.778432395999495,-1.2552931856077985,38.64224826115841,-0.7952592917319238,4.0,117.487988
1140,38.81247842970977,-1.3143381774758542,38.67629429486868,-0.9265336504334969,4.0,117.487988
1141,38.84652446342004,-1.3095265008236812,38.71034032857895,-1.0128265987893623,4.0,117.487988
1142,38.88057049713031,-1.2845950826576369,38.74438636228922,-1.1215776741941554,4.0,117.487988
1143,38.91461653084058,-1.2369096852411297,38.778432395999495,-1.2937136006201049,4.0,117.487988
1144,38.94866256455085,-1.1261154557622175,38.81247842970976,-1.498933213894349,4.0,117.487988
1145,38.98270859826113,-0.9141283526245304,38.84652446342004,-1.6279593724340489,4.0,117.487988
1146,39.016754631971395,-0.6037465416251699,38.88057049713031,-1.5353107657981921,4.0,117.487988
1147,39.05080066568167,-0.24578325572113485,38.91461653084058,-1.1181582440360478,4.0,117.487988
1148,39.08484669939194,0.08905292250681543,38.94866256455085,-0.3903617175839306,4.0,117.487988
1149,39.118892733102214,0.34955402421816745,38.98270859826113,0.4953913046732002,4.0,117.487988
1150,39.15293876681248,0.5252560041356292,39.016754631971395,1.2999004029557253,4.0,117.487988
1151,39.18698480052276,0.6390638889510963,39.05080066568167,1.8022121406013378,4.0,117.487988
1152,39.22103083423303,0.7236667982561894,39.08484669939194,1.8996150204404139,4.0,117.487988
1153,39.2550768679433,0.8011385834119623,39.118892733102214,1.6464997167904805,4.0,117.487988
1154,39.28912290165357,0.8759233992732546,39.15293876681248,1.2133236430663827,4.0,117.487988
1155,39.323168935363846,0.9394572820145666,39.18698480052276,0.7943258991184623,4.0,117.487988
1156,39.357214969074114,0.9793751493423404,39.22103083423303,0.5179345063793979,4.0,117.487988
1157,39.39126100278439,0.9868460254153125,39.2550768679433,0.40445038343392686,4.0,117.487988
1158,39.42530703649466,0.9584764472706484,39.28912290165357,0.38342741390662544,4.0,117.487988
1159,39.459353070204926,0.8930093600926785,39.32316893536384,0.3507564062286472,4.0,117.487988
1160,39.4933991039152,0.7868493452922718,39.357214969074114,0.2298981200133725,4.0,117.487988
1161,39.52744513762547,0.6340015423857894,39.39126100278438,0.006875829502435704,4.0,117.487988
1162,39.561491171335746,0.43249292524973504,39.42530703649466,-0.27292735090923176,4.0,117.487988
1163,39.595537205046014,0.19177398752531302,39.459353070204926,-0.5381637119323109,4.0,117.487988
1164,39.62958323875629,-0.06841794520087108,39.52744513762548,-0.8552836077882938,3.0,88.11599100000001
1165,39.66362927246656,-0.3309804676248555,39.561491171335746,-0.9426108685763261,3.0,88.11599100000001
1166,39.69767530617683,-0.5967746652205714,39.59553720504602,-1.0594297598394944,3.0,88.11599100000001
1167,39.7317213398871,-0.8861125283482536,39.62958323875629,-1.2419802278894776,3.0,88.11599100000001
1168,39.76576737359738,-1.2175936319534975,39.62958323875629,-1.2419802278894776,4.0,117.487988
1169,39.799813407307646,-1.5740354837037303,39.66362927246656,-1.4586517913458639,4.0,117.487988
1170,39.83385944101792,-1.8808905597481635,39.69767530617683,-1.6013241588374767,4.0,117.487988
1171,39.86790547472819,-2.0204513361559124,39.7317213398871,-1.523957478825549,4.0,117.487988
1172,39.901951508438465,-1.8831299348426869,39.76576737359738,-1.117856818986796,4.0,117.487988
1173,39.93599754214873,-1.4297689617911666,39.799813407307646,-0.3864734307724958,4.0,117.487988
1174,39.97004357585901,-0.7272191615370842,39.83385944101792,0.5264378439363573,4.0,117.487988
1175,40.00408960956928,0.06665588558987147,39.86790547472819,1.381054264070374,4.0,117.487988
1176,40.038135643279546,0.7627823814524607,39.90195150843846,1.9421801453934742,4.0,117.487988
1177,40.07218167698982,1.215056741188295,39.93599754214873,2.0839683969566747,4.0,117.487988
1178,40.10622771070009,1.3727111504048457,39.970043575859,1.8409756358646858,4.0,117.487988
1179,40.140273744410365,1.288034565128707,40.00408960956928,1.379018114125713,4.0,117.487988
1180,40.17431977812063,1.079600445716997,40.038135643279546,0.9061186773313987,4.0,117.487988
1181,40.20836581183091,0.8716181327894544,40.07218167698982,0.5752302755535981,4.0,117.487988
1182,40.24241184554118,0.7399156845967457,40.10622771070009,0.4285086571093213,4.0,117.487988
1183,40.27645787925145,0.6910807236171904,40.140273744410365,0.40383766013419786,4.0,117.487988
1184,40.31050391296172,0.682766688654825,40.17431977812063,0.3893826743153268,4.0,117.487988
1185,40.344549946672,0.6668518988563421,40.20836581183091,0.29097764735119286,4.0,117.487988
1186,40.378595980382265,0.6210462722712349,40.5828721826439,-1.5805871337303283,-6.0,-176.23198200000002
1187,40.41264201409254,0.5451128289100522,40.27645787925145,-0.21206916216612565,4.0,117.487988
1188,40.44668804780281,0.4301063932262783,40.31050391296172,-0.5008203063783399,4.0,117.487988
1189,40.480734081513084,0.23572640407112327,40.344549946672,-0.7185437613812878,4.0,117.487988
1190,40.51478011522335,-0.09302695298832786,40.378595980382265,-0.8420372806866397,4.0,117.487988
1191,40.54882614893363,-0.5720693843124001,40.41264201409254,-0.9071898131424412,4.0,117.487988
1192,40.5828721826439,-1.1260639722885382,40.44668804780281,-0.9867574257954368,4.0,117.487988
1193,40.616918216354165,-1.5864423768183369,40.48073408151308,-1.1413376995981723,4.0,117.487988
1194,40.65096425006444,-1.7593491551386968,40.51478011522335,-1.366318439121254,4.0,117.487988
1195,40.68501028377471,-1.532088777486676,40.54882614893362,-1.566102493906342,4.0,117.487988
1196,40.719056317484984,-0.9505855944578971,40.5828721826439,-1.5805871337303283,4.0,117.487988
1197,40.75310235119525,-0.21141008050335883,40.616918216354165,-1.2636604017241184,4.0,117.487988
1198,40.78714838490553,0.43285030636285887,40.99142458716716,0.22002737848811954,-6.0,-176.23198200000002
1199,40.8211944186158,0.7975191392017811,41.02547062087743,0.22499236025407215,-6.0,-176.23198200000002
1200,40.85524045232607,0.8446902479183371,40.719056317484984,1.260808718355534,4.0,117.487988
1201,40.88928648603634,0.6770240971922146,40.75310235119525,1.878185839205561,4.0,117.487988
1202,40.923332519746616,0.46227829892058,40.78714838490553,2.036367044942293,4.0,117.487988
1203,40.957378553456884,0.34081852681900016,40.8211944186158,1.7596854076083255,4.0,117.487988
1204,40.99142458716716,0.36572049799820533,40.85524045232607,1.2362513491979956,4.0,117.487988
1205,41.02547062087743,0.4952895802490121,40.88928648603634,0.7100468774041517,4.0,117.487988
1206,41.0595166545877,0.6283390623284345,40.923332519746616,0.35809050907046935,4.0,117.487988
1207,41.09356268829797,0.6591476310360239,40.957378553456884,0.22162540942858663,4.0,117.487988
1208,41.12760872200825,0.5276517017775062,41.025470620877435,0.22499236025405497,3.0,88.11599100000001
1209,41.161654755718516,0.2440899528742734,41.02547062087743,0.22499236025407215,4.0,117.487988
1210,41.19570078942879,-0.12230142143751097,41.0595166545877,0.14261329334975156,4.0,117.487988
1211,41.22974682313906,-0.4827863152288057,41.09356268829797,-0.04405439421502659,4.0,117.487988
1212,41.26379285684933,-0.7723326474222575,41.12760872200824,-0.28816696381357304,4.0,117.487988
1213,41.2978388905596,-0.969613574308715,41.161654755718516,-0.5287523494752142,4.0,117.487988
1214,41.33188492426987,-1.082922147434756,41.195700789428784,-0.7382330575109882,4.0,117.487988
1215,41.36593095798015,-1.1166149607473337,41.22974682313906,-0.9346193550187698,4.0,117.487988
1216,41.399976991690416,-1.0498055590010706,41.26379285684933,-1.1503199734180816,4.0,117.487988
1217,41.43402302540069,-0.8510740462410673,41.2978388905596,-1.379596828325823,4.0,117.487988
1218,41.46806905911096,-0.5204379346489008,41.33188492426987,-1.5442738436379868,4.0,117.487988
1219,41.502115092821235,-0.11932031379700567,41.36593095798015,-1.510461672785637,4.0,117.487988
1220,41.5361611265315,0.24671091021481303,41.43402302540069,-0.4696141102270775,3.0,88.11599100000001
1221,41.57020716024178,0.4877230697234176,41.46806905911097,0.426643860528264,3.0,88.11599100000001
1222,41.60425319395205,0.587444296087596,41.502115092821235,1.286374736502352,3.0,88.11599100000001
1223,41.63829922766232,0.6126069998588815,41.53616112653151,1.8566801492615912,3.0,88.11599100000001
1224,41.67234526137259,0.663011699751445,41.57020716024178,1.994832998689889,3.0,88.11599100000001
1225,41.70639129508287,0.7973518959175865,41.604253193952054,1.7298735689205835,3.0,88.11599100000001
1226,41.740437328793135,0.9887814920046016,41.63829922766232,1.2324143548709747,3.0,88.11599100000001
1227,41.77448336250341,1.1412414527427,41.6723452613726,0.7170075874720397,3.0,88.11599100000001
1228,41.80852939621368,1.1519699846153615,41.70639129508287,0.3388513552335192,3.0,88.11599100000001
1229,41.84257542992395,0.9746304012059506,41.740437328793135,0.14056336564519262,3.0,88.11599100000001
1230,41.87662146363422,0.6423627315297292,41.77448336250341,0.0665155519046997,3.0,88.11599100000001
1231,41.91066749734449,0.24135932013374423,41.80852939621368,0.02109446589153858,3.0,88.11599100000001
1232,41.94471353105477,-0.14240123260664758,41.842575429923954,-0.07205006269753254,3.0,88.11599100000001
1233,41.978759564765035,-0.4673829669381688,41.87662146363422,-0.24284910779550312,3.0,88.11599100000001
1234,42.01280559847531,-0.7448244813985639,41.9106674973445,-0.48438128873283465,3.0,88.11599100000001
1235,42.04685163218558,-1.0077124369050832,41.94471353105477,-0.7772735528310033,3.0,88.11599100000001
1236,42.080897665895854,-1.2626764617702524,41.97875956476504,-1.1004620273007384,3.0,88.11599100000001
