frame_idx,t_rppg,rppg_n,t_gt_pair,ppg_n_pair,lag_samples,lag_frames
0,0.0,0.20842102865677997,0.0,0.03014139977326523,0.0,0.0
1,0.03379458777649084,1.9029181218343412,0.03379458777649084,0.6422983109367707,0.0,0.0
2,0.06758917555298168,3.12813850498563,0.06758917555298168,1.1968351069602226,0.0,0.0
3,0.10138376332947252,3.597179285254931,0.10138376332947252,1.6230295780680422,0.0,0.0
4,0.13517835110596335,3.2954724040650123,0.13517835110596335,1.8474819496666897,0.0,0.0
5,0.1689729388824542,2.4590612695818774,0.1689729388824542,1.8278327266930596,0.0,0.0
6,0.20276752665894504,1.4593001244997084,0.20276752665894504,1.5834200923005366,0.0,0.0
7,0.2365621144354359,0.6480702066471751,0.2365621144354359,1.1946296393099618,0.0,0.0
8,0.2703567022119267,0.22017954170719875,0.2703567022119267,0.7654589817584712,0.0,0.0
9,0.30415128998841756,0.14256727903157176,0.30415128998841756,0.3722656580107638,0.0,0.0
10,0.3379458777649084,0.18718632962412976,0.3379458777649084,0.03349231003463075,0.0,0.0
11,0.3717404655413992,0.06839687606259752,0.3717404655413992,-0.2782512456651834,0.0,0.0
12,0.4055350533178901,-0.3763210387976042,0.4055350533178901,-0.5897320817546958,0.0,0.0
13,0.43932964109438094,-1.0697839324705662,0.43932964109438094,-0.8796468305930156,0.0,0.0
14,0.4731242288708718,-1.7262547427176802,0.4731242288708718,-1.0671843837155846,0.0,0.0
15,0.5069188166473626,-2.019633683090696,0.5069188166473626,-1.0511133024609627,0.0,0.0
16,0.5407134044238534,-1.782152840383925,0.5407134044238534,-0.7784921530670426,0.0,0.0
17,0.5745079922003443,-1.1058459856257588,0.5745079922003443,-0.2976574780275762,0.0,0.0
18,0.6083025799768351,-0.28673798668186007,0.6083025799768351,0.24419495653473103,0.0,0.0
19,0.6420971677533259,0.3456676145015456,0.6420971677533259,0.6637686409835503,0.0,0.0
20,0.6758917555298168,0.6035985977737776,0.6758917555298168,0.8291568147086706,0.0,0.0
21,0.7096863433063076,0.5150684584069363,0.7096863433063076,0.719305377984137,0.0,0.0
22,0.7434809310827984,0.2587962879384135,0.7434809310827984,0.4210712757805279,0.0,0.0
23,0.7772755188592894,0.013209314046081196,0.7772755188592894,0.06956187511717671,0.0,0.0
24,0.8110701066357802,-0.16992763696112517,0.8110701066357802,-0.22854130773297765,0.0,0.0
25,0.8448646944122711,-0.3760804502619114,0.8448646944122711,-0.44187267399839236,0.0,0.0
26,0.8786592821887619,-0.719142850034344,0.8786592821887619,-0.6063271363696837,0.0,0.0
27,0.9124538699652527,-1.2019760309816758,0.9124538699652527,-0.7722370268627539,0.0,0.0
28,0.9462484577417436,-1.6589816328876685,0.9462484577417436,-0.9447087551621173,0.0,0.0
29,0.9800430455182344,-1.8300018337671042,0.9800430455182344,-1.0591913114176792,0.0,0.0
30,1.0138376332947252,-1.5172400732820939,1.0138376332947252,-1.0121070297416164,0.0,0.0
31,1.0476322210712161,-0.7197465357313633,1.0476322210712161,-0.7301790273437732,0.0,0.0
32,1.0814268088477068,0.34237040699839927,1.0814268088477068,-0.2340920071702452,0.0,0.0
33,1.1152213966241977,1.3300523741404482,1.1152213966241977,0.34825077955820855,0.0,0.0
34,1.1490159844006886,1.954236697533354,1.1490159844006886,0.8334120821257962,0.0,0.0
35,1.1828105721771793,2.116757675583147,1.1828105721771793,1.0713214391348909,0.0,0.0
36,1.2166051599536702,1.9457565699448898,1.2166051599536702,1.0183336897382753,0.0,0.0
37,1.2503997477301612,1.7049126641592212,1.2503997477301612,0.7510475687359485,0.0,0.0
38,1.2841943355066519,1.6267148907751665,1.2841943355066519,0.415065188595018,0.0,0.0
39,1.3179889232831428,1.7696585303224048,1.3179889232831428,0.14221249802187386,0.0,0.0
40,1.3517835110596337,1.991532234249739,1.3517835110596337,-0.014023791177795276,0.0,0.0
41,1.3855780988361244,2.0592147414493565,1.3855780988361244,-0.08929949347407816,0.0,0.0
42,1.4193726866126153,1.821623353400582,1.4193726866126153,-0.1633432107592228,0.0,0.0
43,1.4531672743891062,1.3251960862077,1.4531672743891062,-0.28956200822462325,0.0,0.0
44,1.486961862165597,0.7904368478224147,1.486961862165597,-0.44425201024465133,0.0,0.0
45,1.5207564499420878,0.46534278242009464,1.5207564499420878,-0.5290568988559489,0.0,0.0
46,1.5545510377185787,0.453697762395747,1.5545510377185787,-0.4289665930840317,0.0,0.0
47,1.5883456254950696,0.6288365249700482,1.5883456254950696,-0.0933356587152571,0.0,0.0
48,1.6221402132715603,0.68667555037368,1.6221402132715603,0.41042670739364867,0.0,0.0
49,1.6559348010480512,0.30676445403159874,1.6559348010480512,0.9086323718993929,0.0,0.0
50,1.6897293888245422,-0.6711946419191376,1.6897293888245422,1.1987794757699393,0.0,0.0
51,1.7235239766010328,-2.150650273953589,1.7235239766010328,1.1514392743178945,0.0,0.0
52,1.7573185643775238,-3.805074853202162,1.7573185643775238,0.7772977314533122,0.0,0.0
53,1.7911131521540147,-5.205724827503112,1.7911131521540147,0.21902207623950898,0.0,0.0
54,1.8249077399305054,-5.98541941467551,1.8249077399305054,-0.3272274951155947,0.0,0.0
55,1.8587023277069963,-5.967157922340677,1.8587023277069963,-0.7130795318404805,0.0,0.0
56,1.8924969154834872,-5.209008748859534,1.8924969154834872,-0.9015615983658214,0.0,0.0
57,1.9262915032599779,-3.9573198307401167,1.9262915032599779,-0.957464125297734,0.0,0.0
58,1.9600860910364688,-2.5393559942057147,1.9600860910364688,-0.9754588591038262,0.0,0.0
59,1.9938806788129597,-1.2436119390242673,1.9938806788129597,-0.9960624357028953,0.0,0.0
60,2.0276752665894504,-0.2320536446619754,2.0276752665894504,-0.9671255962508569,0.0,0.0
61,2.0614698543659413,0.48603362655282195,2.0614698543659413,-0.7795070277612164,0.0,0.0
62,2.0952644421424322,1.0155704315073384,2.0952644421424322,-0.3564618348333816,0.0,0.0
63,2.129059029918923,1.501214408949843,2.129059029918923,0.26306565512479,0.0,0.0
64,2.1628536176954136,2.0562881081598055,1.858702327706996,-0.7130795318404779,9.0,266.314833
65,2.1966482054719045,2.7175282424702036,1.892496915483487,-0.9015615983658202,9.0,266.314833
66,2.2304427932483954,3.4280147737170186,1.9262915032599779,-0.957464125297734,9.0,266.314833
67,2.2642373810248864,4.046855880527122,1.9600860910364688,-0.9754588591038262,9.0,266.314833
68,2.2980319688013773,4.389531716697261,2.2642373810248864,1.1225151605673505,1.0,29.590537000000005
69,2.331826556577868,4.297502316868658,2.2980319688013773,0.5763877596459243,1.0,29.590537000000005
70,2.3656211443543587,3.7142218405854495,2.3318265565778677,0.0041311306327800335,1.0,29.590537000000005
71,2.3994157321308496,2.7289235001908825,2.3994157321308496,-0.6618957246173247,0.0,0.0
72,2.4332103199073405,1.5622797248916416,2.4332103199073405,-0.7640895444542747,0.0,0.0
73,2.4670049076838314,0.4992303937439694,2.4670049076838314,-0.822187994760327,0.0,0.0
74,2.5007994954603223,-0.20432912308111462,2.196648205471905,1.3532423388156216,9.0,266.314833
75,2.5345940832368132,-0.4098819604531226,2.230442793248396,1.428938658609066,9.0,266.314833
76,2.5683886710133037,-0.148140053050043,2.264237381024886,1.1225151605673545,9.0,266.314833
77,2.6021832587897946,0.39385914315231224,2.298031968801377,0.5763877596459315,9.0,266.314833
78,2.6359778465662855,0.9557088634650172,2.3318265565778677,0.0041311306327800335,9.0,266.314833
79,2.6697724343427764,1.3197625698398063,2.3656211443543587,-0.42541652929361157,9.0,266.314833
80,2.7035670221192674,1.394665953994262,2.3994157321308496,-0.6618957246173247,9.0,266.314833
81,2.7373616098957583,1.217820209144905,2.4332103199073405,-0.7640895444542747,9.0,266.314833
82,2.7711561976722487,0.8837549463674255,1.7235239766010328,1.1514392743178945,31.0,917.3066470000001
83,2.8049507854487397,0.45317664061051044,1.7573185643775238,0.7772977314533122,31.0,917.3066470000001
84,2.8387453732252306,-0.09716122310296355,1.7911131521540147,0.21902207623950898,31.0,917.3066470000001
85,2.8725399610017215,-0.8536270101605369,2.568388671013304,-0.6373007909338585,9.0,266.314833
86,2.9063345487782124,-1.8842417513032934,2.602183258789795,-0.18214328910464342,9.0,266.314833
87,2.9401291365547033,-3.1422813325250436,2.635977846566286,0.45742301895880827,9.0,266.314833
88,2.973923724331194,-4.418034165602969,2.669772434342776,1.0858838588826958,9.0,266.314833
89,3.0077183121076847,-5.384949080194936,2.703567022119267,1.465021793303179,9.0,266.314833
90,3.0415128998841756,-5.732148878082373,1.9938806788129597,-0.9960624357028953,31.0,917.3066470000001
91,3.0753074876606665,-5.3113205909680845,1.9938806788129597,-0.9960624357028953,32.0,946.8971840000002
92,3.1091020754371574,-4.204926212660764,2.0276752665894504,-0.9671255962508569,32.0,946.8971840000002
93,3.1428966632136484,-2.675224156706848,2.0614698543659413,-0.7795070277612164,32.0,946.8971840000002
94,3.1766912509901393,-1.0396956989833623,2.8725399610017215,-0.5300222764902406,9.0,266.314833
95,3.2104858387666297,0.44078388660139733,2.9063345487782124,-0.7168582513312975,9.0,266.314833
96,3.2442804265431207,1.607887098004658,2.9401291365547033,-0.7765830758829815,9.0,266.314833
97,3.2780750143196116,2.3929231762862577,2.9739237243311942,-0.8028336085335284,9.0,266.314833
98,3.3118696020961025,2.782633122173859,3.007718312107685,-0.8175493285923653,9.0,266.314833
99,3.3456641898725934,2.7936874263110845,3.041512899884176,-0.7510789944090385,9.0,266.314833
100,3.3794587776490843,2.466524287998649,3.075307487660667,-0.5017964856091924,9.0,266.314833
101,3.413253365425575,1.8762464411076498,3.109102075437157,-0.033690446096637905,9.0,266.314833
102,3.4470479532020657,1.1485743078316843,3.142896663213648,0.5594020185963885,9.0,266.314833
103,3.4808425409785566,0.4589740306028507,3.176691250990139,1.0758253756376055,9.0,266.314833
104,3.5146371287550475,-0.004698603753361185,3.2104858387666297,1.3086418625166891,9.0,266.314833
105,3.5484317165315384,-0.11137264066592324,3.2442804265431207,1.1634902916731265,9.0,266.314833
106,3.5822263043080294,0.14840892742176418,3.2780750143196116,0.7119750039902131,9.0,266.314833
107,3.61602089208452,0.646930301270915,3.3118696020961025,0.14460231262554063,9.0,266.314833
108,3.6498154798610107,1.1713518247052521,3.3456641898725934,-0.3430872705361014,9.0,266.314833
109,3.6836100676375017,1.5187452207306618,3.3794587776490843,-0.6539292875085934,9.0,266.314833
110,3.7174046554139926,1.5822773887632717,3.4132533654255752,-0.8164288749677728,9.0,266.314833
111,3.7511992431904835,1.3829529790679491,3.447047953202066,-0.9250410355293401,9.0,266.314833
112,3.7849938309669744,1.034759768512933,3.480842540978557,-1.041146488658613,9.0,266.314833
113,3.818788418743465,0.6695826637926616,3.514637128755047,-1.126992961139893,9.0,266.314833
114,3.8525830065199558,0.3680566122360731,3.548431716531538,-1.0613282674424538,9.0,266.314833
115,3.8863775942964467,0.13289812758502065,3.582226304308029,-0.729467941779463,9.0,266.314833
116,3.9201721820729376,-0.08782510962972395,4.359501823167318,-0.471582599816212,-13.0,-384.67698100000007
117,3.9539667698494285,-0.3471379024875291,4.393296410943809,-0.7185134803652011,-13.0,-384.67698100000007
118,3.9877613576259194,-0.6466141201646477,4.4270909987203,-0.8747129577450407,-13.0,-384.67698100000007
119,4.02155594540241,-0.9137934693880618,4.460885586496791,-1.0254878089163706,-13.0,-384.67698100000007
120,4.055350533178901,-1.0268279220920387,4.494680174273282,-1.1615982127680227,-13.0,-384.67698100000007
121,4.089145120955392,-0.8815755988673659,4.528474762049773,-1.1682016680574008,-13.0,-384.67698100000007
122,4.122939708731883,-0.46729775594045136,4.562269349826264,-0.9075941727672323,-13.0,-384.67698100000007
123,4.156734296508374,0.09944488267164517,4.596063937602755,-0.3386565438102908,-13.0,-384.67698100000007
124,4.1905288842848645,0.6148147513347273,4.6298585253792455,0.4145699960362876,-13.0,-384.67698100000007
125,4.224323472061355,0.8851893900872865,4.663653113155736,1.1013014161762822,-13.0,-384.67698100000007
126,4.258118059837846,0.8232114136424102,4.697447700932227,1.471465733404063,-13.0,-384.67698100000007
127,4.291912647614337,0.4821266941950548,4.731242288708718,1.4101743158091051,-13.0,-384.67698100000007
128,4.325707235390827,0.00896504620731622,4.765036876485208,0.9911838495199163,-13.0,-384.67698100000007
129,4.359501823167318,-0.45009835012249705,4.02155594540241,-0.8818483029649001,10.0,295.90537000000006
130,4.393296410943809,-0.829131439222977,4.055350533178901,-0.7667235427036936,10.0,295.90537000000006
131,4.4270909987203,-1.1547108228333238,4.089145120955392,-0.35549405263340056,10.0,295.90537000000006
132,4.460885586496791,-1.4852233354674267,4.122939708731883,0.29660215129064454,10.0,295.90537000000006
133,4.494680174273282,-1.824550142410619,4.156734296508374,0.9814657048031615,10.0,295.90537000000006
134,4.528474762049773,-2.0801032505140373,4.1905288842848645,1.4351701090896483,10.0,295.90537000000006
135,4.562269349826264,-2.1049926320430123,4.224323472061355,1.4806736662748585,10.0,295.90537000000006
136,4.596063937602755,-1.79838379538572,4.258118059837846,1.1232641272896016,10.0,295.90537000000006
137,4.6298585253792455,-1.1879991196599673,4.291912647614337,0.5367442770189035,10.0,295.90537000000006
138,4.663653113155736,-0.4288548943113244,4.325707235390828,-0.04739505784352633,10.0,295.90537000000006
139,4.697447700932227,0.28217910095102755,5.136777342026608,0.734707398084047,-13.0,-384.67698100000007
140,4.731242288708717,0.8107534367311993,5.170571929803098,1.3645134630345048,-13.0,-384.67698100000007
141,4.765036876485208,1.1333157147195436,5.204366517579589,1.6157637944078656,-13.0,-384.67698100000007
142,4.798831464261699,1.3049792871888095,5.23816110535608,1.4354030190216494,-13.0,-384.67698100000007
143,4.83262605203819,1.3854232821059616,5.271955693132571,0.9499244617563422,-13.0,-384.67698100000007
144,4.866420639814681,1.3843524531895073,5.305750280909062,0.3774258929734012,-13.0,-384.67698100000007
145,4.900215227591172,1.2630793816853456,5.339544868685553,-0.10113684667115343,-13.0,-384.67698100000007
146,4.934009815367663,0.9853862616879482,5.373339456462044,-0.4264852292659082,-13.0,-384.67698100000007
147,4.967804403144154,0.5784362463212077,5.136777342026608,0.734707398084047,-5.0,-147.95268500000003
148,5.001598990920645,0.15588379409059214,5.170571929803099,1.3645134630345115,-5.0,-147.95268500000003
149,5.0353935786971356,-0.12365441077515918,5.440928632015026,-0.854963556865461,-12.0,-355.08644400000003
150,5.0691881664736265,-0.1438771554884979,5.4747232197915165,-1.0442227790215959,-12.0,-355.08644400000003
151,5.102982754250117,0.09505598958989878,5.5085178075680075,-1.1246549094368552,-12.0,-355.08644400000003
152,5.136777342026607,0.47132114583523127,5.5423123953444975,-0.9585193966954886,-12.0,-355.08644400000003
153,5.170571929803098,0.811810231795703,5.339544868685553,-0.10113684667115343,-5.0,-147.95268500000003
154,5.204366517579589,0.9884742842749303,5.373339456462044,-0.4264852292659082,-5.0,-147.95268500000003
155,5.23816110535608,0.9739186491076227,5.407134044238535,-0.6516357757607846,-5.0,-147.95268500000003
156,5.271955693132571,0.8247506511256067,5.440928632015026,-0.854963556865461,-5.0,-147.95268500000003
157,5.305750280909062,0.6171343630116316,5.4747232197915165,-1.0442227790215959,-5.0,-147.95268500000003
158,5.339544868685553,0.3889696973685416,5.001598990920645,-1.2102068411178526,10.0,295.90537000000006
159,5.373339456462044,0.12789428290153854,5.0353935786971356,-1.1311304418315604,10.0,295.90537000000006
160,5.407134044238535,-0.19664665318025623,5.0691881664736265,-0.7392521565626926,10.0,295.90537000000006
161,5.440928632015026,-0.5909256675408603,5.102982754250117,-0.05627079534016394,10.0,295.90537000000006
162,5.4747232197915165,-1.0176796911254709,5.136777342026608,0.734707398084047,10.0,295.90537000000006
163,5.5085178075680075,-1.4066607969642317,5.170571929803099,1.3645134630345115,10.0,295.90537000000006
164,5.5423123953444975,-1.6776119164467094,5.204366517579589,1.6157637944078656,10.0,295.90537000000006
165,5.576106983120988,-1.7606595359954038,5.23816110535608,1.4354030190216494,10.0,295.90537000000006
166,5.609901570897479,-1.6148647238707419,5.508517807568007,-1.124654909436853,3.0,88.77161100000001
167,5.64369615867397,-1.2473169909707789,5.5423123953444975,-0.9585193966954886,3.0,88.77161100000001
168,5.677490746450461,-0.7225294370699948,5.576106983120988,-0.4770986365142348,3.0,88.77161100000001
169,5.711285334226952,-0.14824936180263304,5.846463685332916,-0.3034258831430246,-4.0,-118.36214800000002
170,5.745079922003443,0.3608237432397116,5.880258273109407,-0.5518419344417036,-4.0,-118.36214800000002
171,5.778874509779934,0.721485312305435,5.677490746450461,1.4145290212658255,3.0,88.77161100000001
172,5.812669097556425,0.9014950005801952,5.711285334226952,1.4658297273748013,3.0,88.77161100000001
173,5.846463685332916,0.9145629899249605,5.745079922003443,1.1351129391670196,3.0,88.77161100000001
174,5.880258273109407,0.799595891756879,5.778874509779934,0.6019963842373727,3.0,88.77161100000001
175,5.9140528608858975,0.5958404658555384,5.812669097556425,0.08001208985805039,3.0,88.77161100000001
176,5.947847448662388,0.3253275591517946,6.083025799768351,-0.2747701004267515,-4.0,-118.36214800000002
177,5.9816420364388785,-0.004223013029134585,6.116820387544842,0.4505664183923122,-4.0,-118.36214800000002
178,6.015436624215369,-0.37067333364010513,6.150614975321333,1.0709589786022118,-4.0,-118.36214800000002
179,6.04923121199186,-0.701765490372394,5.711285334226952,1.4658297273748013,10.0,295.90537000000006
180,6.083025799768351,-0.8715764793526174,5.711285334226952,1.4658297273748013,11.0,325.49590700000005
181,6.116820387544842,-0.7545504310528766,5.745079922003443,1.1351129391670196,11.0,325.49590700000005
182,6.150614975321333,-0.3145545191424661,5.778874509779934,0.6019963842373727,11.0,325.49590700000005
183,6.184409563097824,0.3364874910312622,5.812669097556425,0.08001208985805039,11.0,325.49590700000005
184,6.218204150874315,0.9688714087630886,6.116820387544842,0.4505664183923122,3.0,88.77161100000001
185,6.251998738650806,1.3504280317621555,6.150614975321333,1.0709589786022118,3.0,88.77161100000001
186,6.285793326427297,1.3723183101103593,6.184409563097824,1.3562564064172284,3.0,88.77161100000001
187,6.319587914203788,1.095276153786634,6.218204150874315,1.2221760479004702,3.0,88.77161100000001
188,6.3533825019802785,0.6856498713497714,6.251998738650806,0.7661590433139331,3.0,88.77161100000001
189,6.387177089756769,0.2959099022215218,6.285793326427296,0.19762114565787048,3.0,88.77161100000001
190,6.4209716775332595,-0.018091191359923355,6.556150028639223,-0.2504044883234176,-4.0,-118.36214800000002
191,6.45476626530975,-0.2897782136501091,6.589944616415714,0.4494241017166035,-4.0,-118.36214800000002
192,6.488560853086241,-0.5672418744165368,6.623739204192205,1.133186401136722,-4.0,-118.36214800000002
193,6.522355440862732,-0.8413604457874052,6.657533791968696,1.5503303089497837,-4.0,-118.36214800000002
194,6.556150028639223,-1.0326658894718834,6.691328379745187,1.5509372953164091,-4.0,-118.36214800000002
195,6.589944616415714,-1.040264760176799,6.725122967521678,1.1650494860527298,-4.0,-118.36214800000002
196,6.623739204192205,-0.8114591386069194,6.522355440862732,-0.7513535588174459,3.0,88.77161100000001
197,6.657533791968696,-0.38317942250687603,6.7927121430746595,-0.010300056474433075,-4.0,-118.36214800000002
198,6.691328379745187,0.1285012469983987,6.8265067308511505,-0.450415540992843,-4.0,-118.36214800000002
199,6.725122967521678,0.5810484408049658,6.860301318627641,-0.7398286604350464,-4.0,-118.36214800000002
200,6.758917555298169,0.8684109998278479,6.894095906404132,-0.9464025312336913,-4.0,-118.36214800000002
201,6.792712143074659,0.9574831679683848,6.691328379745186,1.5509372953164091,3.0,88.77161100000001
202,6.82650673085115,0.8773252565741915,6.725122967521677,1.16504948605274,3.0,88.77161100000001
203,6.8603013186276405,0.6746030442648149,6.758917555298168,0.5727358902435649,3.0,88.77161100000001
204,6.894095906404131,0.3762306695657066,6.792712143074659,-0.010300056474421507,3.0,88.77161100000001
205,6.927890494180622,-0.009066283676186386,6.82650673085115,-0.4504155409928354,3.0,88.77161100000001
206,6.961685081957113,-0.45830588163997976,6.8603013186276405,-0.7398286604350409,3.0,88.77161100000001
207,6.995479669733604,-0.9080510357298968,6.894095906404131,-0.9464025312336869,3.0,88.77161100000001
208,7.029274257510095,-1.262339884389095,6.927890494180622,-1.1163052955371984,3.0,88.77161100000001
209,7.063068845286586,-1.4292371236159842,6.961685081957113,-1.2073001281259443,3.0,88.77161100000001
210,7.096863433063077,-1.357533457706248,6.995479669733604,-1.1056749695778636,3.0,88.77161100000001
211,7.130658020839568,-1.0505099322269749,7.029274257510095,-0.7172278885677262,3.0,88.77161100000001
212,7.164452608616059,-0.55650902601108,7.063068845286586,-0.06576821479913185,3.0,88.77161100000001
213,7.198247196392549,0.04720210017537829,7.096863433063076,0.6774784387312229,3.0,88.77161100000001
214,7.23204178416904,0.6637551067702064,7.130658020839567,1.263707262566879,3.0,88.77161100000001
215,7.265836371945531,1.1815431619790935,7.164452608616058,1.4947925361362786,3.0,88.77161100000001
216,7.2996309597220215,1.4869177098541797,7.198247196392549,1.32603582483363,3.0,88.77161100000001
217,7.333425547498512,1.4913887570477289,7.23204178416904,0.8766931547343291,3.0,88.77161100000001
218,7.367220135275003,1.1673306659951335,7.265836371945531,0.34568462705454717,3.0,88.77161100000001
219,7.401014723051494,0.5769112727531086,7.2996309597220215,-0.10676511184856127,3.0,88.77161100000001
220,7.434809310827985,-0.12602089062873634,7.569987661933949,0.3135375814272878,-4.0,-118.36214800000002
221,7.468603898604476,-0.737987955056644,7.60378224971044,1.0096738498713864,-4.0,-118.36214800000002
222,7.502398486380967,-1.0862845214803285,7.637576837486931,1.4183522067252359,-4.0,-118.36214800000002
223,7.536193074157458,-1.1069039310059963,7.6713714252634215,1.4090523824517798,-4.0,-118.36214800000002
224,7.569987661933949,-0.8654021596522536,7.705166013039912,1.0345852243995382,-4.0,-118.36214800000002
225,7.603782249710439,-0.5010647279017598,7.502398486380966,-0.9456524547118922,3.0,88.77161100000001
226,7.63757683748693,-0.1356520528981837,7.536193074157457,-0.4181896256109796,3.0,88.77161100000001
227,7.671371425263421,0.18376020048513467,7.569987661933948,0.3135375814272686,3.0,88.77161100000001
228,7.7051660130399116,0.47158065706474256,7.603782249710439,1.0096738498713758,3.0,88.77161100000001
229,7.7389606008164025,0.7448080213209658,7.63757683748693,1.418352206725236,3.0,88.77161100000001
230,7.772755188592893,0.975331466891691,7.671371425263421,1.4090523824517895,3.0,88.77161100000001
231,7.806549776369384,1.0913253943994148,7.7051660130399116,1.0345852243995526,3.0,88.77161100000001
232,7.840344364145875,1.0196217284896787,7.7389606008164025,0.4836161749726673,3.0,88.77161100000001
233,7.874138951922366,0.730318701855703,7.772755188592893,-0.03929384482789652,3.0,88.77161100000001
234,7.907933539698857,0.2529347678439223,7.806549776369384,-0.42330920491679414,3.0,88.77161100000001
235,7.941728127475348,-0.33417801406383346,7.840344364145875,-0.6809857565915696,3.0,88.77161100000001
236,7.975522715251839,-0.9191259305187542,8.110701066357802,1.293446931012625,-4.0,-118.36214800000002
237,8.009317303028329,-1.3664532359681132,8.144495654134293,1.5174803902748717,-4.0,-118.36214800000002
238,8.04311189080482,-1.537396250661821,8.178290241910783,1.3236340706364826,-4.0,-118.36214800000002
239,8.07690647858131,-1.3381609904358562,7.975522715251838,-1.1197268815331736,3.0,88.77161100000001
240,8.110701066357802,-0.7817317591653614,8.009317303028329,-0.7325133057283458,3.0,88.77161100000001
241,8.144495654134293,-0.015710557230717313,8.04311189080482,-0.06635511379392178,3.0,88.77161100000001
242,8.178290241910783,0.7218870600754121,8.313468593016747,-0.4921175538098392,-4.0,-118.36214800000002
243,8.212084829687274,1.205512405952722,8.347263180793238,-0.7093736891867095,-4.0,-118.36214800000002
244,8.245879417463765,1.323412406631103,8.381057768569729,-0.9079126112511372,-4.0,-118.36214800000002
245,8.279674005240256,1.1151001199824833,8.41485235634622,-1.0896146903721844,-4.0,-118.36214800000002
246,8.313468593016747,0.7240605816541429,8.44864694412271,-1.153500671339245,-4.0,-118.36214800000002
247,8.347263180793238,0.30016934883586593,8.482441531899202,-0.9587844908144085,-4.0,-118.36214800000002
248,8.381057768569729,-0.08040715483181828,8.279674005240256,-0.18031247128544914,3.0,88.77161100000001
249,8.41485235634622,-0.42520039874130655,8.313468593016747,-0.4921175538098392,3.0,88.77161100000001
250,8.44864694412271,-0.7678886295634763,8.347263180793238,-0.7093736891867095,3.0,88.77161100000001
251,8.482441531899202,-1.0959464834535444,8.381057768569729,-0.9079126112511372,3.0,88.77161100000001
252,8.516236119675693,-1.3219411934966778,8.41485235634622,-1.0896146903721844,3.0,88.77161100000001
253,8.550030707452184,-1.3200420222204226,8.44864694412271,-1.153500671339245,3.0,88.77161100000001
254,8.583825295228674,-1.0022347468644788,8.482441531899202,-0.9587844908144085,3.0,88.77161100000001
255,8.617619883005164,-0.38399660680406067,8.51623611967569,-0.4395445365046844,3.0,88.77161100000001
256,8.651414470781654,0.40053707108086783,8.550030707452182,0.3114109465382796,3.0,88.77161100000001
257,8.685209058558145,1.141141887813428,8.583825295228673,1.0567929052665987,3.0,88.77161100000001
258,8.719003646334636,1.629100760638329,8.617619883005164,1.528401113782842,3.0,88.77161100000001
259,8.752798234111127,1.734702160650396,8.651414470781654,1.569855234373934,3.0,88.77161100000001
260,8.786592821887618,1.4519990705382348,8.685209058558145,1.2152634024567617,3.0,88.77161100000001
261,8.820387409664109,0.8913624444403433,8.719003646334636,0.6542285821010797,3.0,88.77161100000001
262,8.8541819974406,0.22427989965557918,8.752798234111127,0.11110582473342485,3.0,88.77161100000001
263,8.88797658521709,-0.3896254467835279,8.786592821887618,-0.2788338904283691,3.0,88.77161100000001
264,8.921771172993582,-0.8541956687434665,8.820387409664109,-0.5177428253945214,3.0,88.77161100000001
265,8.955565760770073,-1.1426885280062324,8.8541819974406,-0.6948582509531342,3.0,88.77161100000001
266,8.989360348546564,-1.263589932496852,8.88797658521709,-0.8812824531682215,3.0,88.77161100000001
267,9.023154936323055,-1.2186910388441903,8.921771172993582,-1.048835105946929,3.0,88.77161100000001
268,9.056949524099545,-0.9910761090902115,8.955565760770073,-1.073790132590697,3.0,88.77161100000001
269,9.090744111876036,-0.5759818583292327,8.989360348546564,-0.8264838068543066,3.0,88.77161100000001
270,9.124538699652527,-0.02834898183448713,9.023154936323055,-0.28492578361567,3.0,88.77161100000001
271,9.158333287429018,0.5201051733625074,9.056949524099545,0.4116415679665387,3.0,88.77161100000001
272,9.19212787520551,0.903046834020675,9.090744111876036,1.0153304981722473,3.0,88.77161100000001
273,9.225922462982,1.0033058801867405,9.124538699652527,1.2997630222054681,3.0,88.77161100000001
274,9.259717050758491,0.8223525303998809,9.158333287429018,1.1822678040943941,3.0,88.77161100000001
275,9.293511638534982,0.48134919579068103,9.19212787520551,0.7574246989039823,3.0,88.77161100000001
276,9.327306226311473,0.14553111065615978,9.225922462982,0.22418577007740717,3.0,88.77161100000001
277,9.361100814087964,-0.077762514254898,9.259717050758491,-0.23844131160248294,3.0,88.77161100000001
278,9.394895401864455,-0.19416726264794804,9.293511638534982,-0.5618289096025263,3.0,88.77161100000001
279,9.428689989640946,-0.2924986240865102,9.327306226311473,-0.788402737025581,3.0,88.77161100000001
280,9.462484577417435,-0.45634370181941375,9.361100814087962,-0.9914231036551945,3.0,88.77161100000001
281,9.496279165193926,-0.6844813062848697,9.394895401864453,-1.1782592634628437,3.0,88.77161100000001
282,9.530073752970416,-0.87860709408511,9.428689989640944,-1.2521960330647959,3.0,88.77161100000001
283,9.563868340746907,-0.907740335450238,9.462484577417435,-1.0668273242073771,3.0,88.77161100000001
284,9.597662928523398,-0.7021346266913222,9.496279165193926,-0.540330760580387,3.0,88.77161100000001
285,9.63145751629989,-0.3056264586073187,9.530073752970416,0.25103054489642584,3.0,88.77161100000001
286,9.66525210407638,0.153328137625143,9.563868340746907,1.0738981717275853,3.0,88.77161100000001
287,9.699046691852871,0.5467631078161816,9.597662928523398,1.6448181986254535,3.0,88.77161100000001
288,9.732841279629362,0.819562784682634,9.63145751629989,1.7791064595910437,3.0,88.77161100000001
289,9.766635867405853,0.9952608020087425,9.66525210407638,1.484821357122375,3.0,88.77161100000001
290,9.800430455182344,1.1195310211569278,9.699046691852871,0.9415400741374856,3.0,88.77161100000001
291,9.834225042958835,1.194977354337666,9.732841279629362,0.38197081807279615,3.0,88.77161100000001
292,9.868019630735326,1.16272273122928,9.766635867405853,-0.042681924125821454,3.0,88.77161100000001
293,9.901814218511817,0.9452514581619826,9.800430455182344,-0.3270036115532582,3.0,88.77161100000001
294,9.935608806288307,0.5180742334189624,9.834225042958835,-0.569500953884246,3.0,88.77161100000001
295,9.969403394064798,-0.0413389168646194,10.104581745170762,1.3778563610513224,-4.0,-118.36214800000002
296,10.00319798184129,-0.5645828620824194,10.138376332947253,1.4289610025733217,-4.0,-118.36214800000002
297,10.03699256961778,-0.8659424629523488,10.172170920723744,1.042160346187333,-4.0,-118.36214800000002
298,10.070787157394271,-0.8420003664300344,9.935608806288307,-1.3748140858937126,4.0,118.36214800000002
299,10.104581745170762,-0.536980288348272,9.969403394064798,-1.2651746208830237,4.0,118.36214800000002
300,10.138376332947253,-0.12792014817867173,10.00319798184129,-0.7602077615786808,4.0,118.36214800000002
301,10.172170920723744,0.16608255090091553,10.543911386265144,0.45022929828270675,-11.0,-325.49590700000005
302,10.205965508500235,0.19683730608208924,10.577705974041635,1.2049014260283812,-11.0,-325.49590700000005
303,10.239760096276726,-0.0429896055634598,10.611500561818126,1.6633724193774775,-11.0,-325.49590700000005
304,10.273554684053215,-0.4280795815068446,10.645295149594615,1.6675146352138857,-11.0,-325.49590700000005
305,10.307349271829706,-0.775611331757119,10.172170920723742,1.0421603461873534,4.0,118.36214800000002
306,10.341143859606197,-0.941960848147431,10.205965508500233,0.4354120685584525,4.0,118.36214800000002
307,10.374938447382688,-0.8895517731329184,10.239760096276724,-0.12780830779391877,4.0,118.36214800000002
308,10.408733035159178,-0.6941331454796295,10.273554684053215,-0.48467231556260143,4.0,118.36214800000002
309,10.44252762293567,-0.4950633581719502,10.307349271829706,-0.6386357318179483,4.0,118.36214800000002
310,10.47632221071216,-0.41461041954996897,10.84806267625356,-0.7588825869306275,-11.0,-325.49590700000005
311,10.510116798488651,-0.4834780970499657,10.881857264030051,-0.9751983521563752,-11.0,-325.49590700000005
312,10.543911386265142,-0.6122788059572364,10.408733035159178,-0.9695017510717423,4.0,118.36214800000002
313,10.577705974041633,-0.6335752913237302,10.44252762293567,-1.0352636632096694,4.0,118.36214800000002
314,10.611500561818124,-0.39987720439127916,10.47632221071216,-0.8454368895642141,4.0,118.36214800000002
315,10.645295149594615,0.11886764030801733,10.510116798488651,-0.31788697819202083,4.0,118.36214800000002
316,10.679089737371106,0.8026637263027355,11.557749019559868,0.7227421312406119,-26.0,-769.3539620000001
317,10.712884325147597,1.4385865041154549,11.591543607336359,1.4658218847913222,-26.0,-769.3539620000001
318,10.746678912924088,1.8318408028415771,10.611500561818124,1.6633724193774773,4.0,118.36214800000002
319,10.780473500700579,1.8986918618289128,10.645295149594615,1.6675146352138857,4.0,118.36214800000002
320,10.81426808847707,1.6839493102291923,10.679089737371106,1.2632401109434335,4.0,118.36214800000002
321,10.84806267625356,1.29965735144708,10.712884325147597,0.6572669913061271,4.0,118.36214800000002
322,10.881857264030051,0.8367649512583492,10.746678912924088,0.0854099883940901,4.0,118.36214800000002
323,10.915651851806542,0.3191884391128805,10.780473500700579,-0.31770900333769153,4.0,118.36214800000002
324,10.949446439583033,-0.2652848858282298,11.050830202912506,0.38370783933345554,-3.0,-88.77161100000001
325,10.983241027359524,-0.8867060645552295,11.084624790688997,1.0899570451871892,-3.0,-88.77161100000001
326,11.017035615136015,-1.4193943320094387,11.118419378465488,1.4708726565251147,-3.0,-88.77161100000001
327,11.050830202912506,-1.6704399279105513,10.915651851806542,-1.1789815949959306,4.0,118.36214800000002
328,11.084624790688995,-1.4847413531750275,10.949446439583031,-1.2298766323764534,4.0,118.36214800000002
329,11.118419378465486,-0.8578521198502317,10.983241027359522,-0.9795885711986632,4.0,118.36214800000002
330,11.152213966241977,0.025810516050341615,11.017035615136013,-0.3945723883368212,4.0,118.36214800000002
331,11.186008554018468,0.8634197798595425,11.050830202912504,0.3837078393334146,4.0,118.36214800000002
332,11.219803141794959,1.3726294705163116,11.321186905124431,-0.6293240696826465,-3.0,-88.77161100000001
333,11.25359772957145,1.4150589813835477,11.118419378465486,1.4708726565251173,4.0,118.36214800000002
334,11.28739231734794,1.0365896907820227,11.152213966241977,1.419018678347684,4.0,118.36214800000002
335,11.321186905124431,0.4134820341579194,11.186008554018468,1.018323701542335,4.0,118.36214800000002
336,11.354981492900922,-0.2512509763619189,11.219803141794959,0.4752553890908846,4.0,118.36214800000002
337,11.388776080677413,-0.8149458031113977,11.25359772957145,-0.013437022815660584,4.0,118.36214800000002
338,11.422570668453904,-1.2216075493552854,11.28739231734794,-0.3663270649836873,4.0,118.36214800000002
339,11.456365256230395,-1.471779365425118,11.28739231734794,-0.3663270649836873,5.0,147.95268500000003
340,11.490159844006886,-1.5764308347043374,11.591543607336359,1.4658218847913222,-3.0,-88.77161100000001
341,11.523954431783377,-1.5327457542138228,11.591543607336359,1.4658218847913222,-2.0,-59.18107400000001
342,11.557749019559868,-1.3310743553271351,11.62533819511285,1.7886986790523138,-2.0,-59.18107400000001
343,11.591543607336359,-0.9780354397441202,11.422570668453904,-1.4043529546077247,5.0,147.95268500000003
344,11.62533819511285,-0.5144114387487885,11.456365256230395,-1.3745762928436962,5.0,147.95268500000003
345,11.65913278288934,-0.013115860127689095,11.490159844006886,-0.9610620214487128,5.0,147.95268500000003
346,11.692927370665831,0.4446270339517337,11.523954431783377,-0.19024963494318428,5.0,147.95268500000003
347,11.726721958442322,0.8022261461976553,11.794311133995304,-0.414671819994101,-2.0,-59.18107400000001
348,11.760516546218813,1.04890071485826,11.828105721771795,-0.7263724888775964,-2.0,-59.18107400000001
349,11.794311133995304,1.2140528100856294,11.861900309548286,-1.036155424140549,-2.0,-59.18107400000001
350,11.828105721771795,1.336950127405704,11.65913278288934,1.6283526206245067,5.0,147.95268500000003
351,11.861900309548286,1.429970064112553,11.692927370665831,1.1224137248885786,5.0,147.95268500000003
352,11.895694897324775,1.4586141912277333,11.72672195844232,0.5076629416656273,5.0,147.95268500000003
353,11.929489485101266,1.353127822789031,11.760516546218811,-0.023734064410013134,5.0,147.95268500000003
354,11.963284072877757,1.0493777507930044,11.794311133995302,-0.4146718199940805,5.0,147.95268500000003
355,11.997078660654248,0.5392071438881313,11.828105721771793,-0.72637248887758,5.0,147.95268500000003
356,12.030873248430739,-0.09838932174862779,11.861900309548284,-1.0361554241405329,5.0,147.95268500000003
357,12.06466783620723,-0.7084936870985101,11.895694897324775,-1.3300573498182924,5.0,147.95268500000003
358,12.09846242398372,-1.1166066141561832,11.929489485101266,-1.473922588998014,5.0,147.95268500000003
359,12.132257011760212,-1.20499814047712,11.963284072877757,-1.291459557319587,5.0,147.95268500000003
360,12.166051599536702,-0.9667828786902005,11.997078660654248,-0.6999252257603436,5.0,147.95268500000003
361,12.199846187313193,-0.5063063716052806,12.030873248430739,0.19288731417857433,5.0,147.95268500000003
362,12.233640775089684,0.010634422144723423,12.06466783620723,1.1067606681307183,5.0,147.95268500000003
363,12.267435362866175,0.42330225081819206,12.09846242398372,1.7217114742257367,5.0,147.95268500000003
364,12.301229950642666,0.6251883561365654,12.132257011760212,1.8441426368106104,5.0,147.95268500000003
365,12.335024538419157,0.5828399425285515,12.166051599536702,1.5004686429225806,5.0,147.95268500000003
366,12.368819126195648,0.329468868340293,12.199846187313193,0.9010158175951195,5.0,147.95268500000003
367,12.402613713972139,-0.05646696711467438,12.233640775089684,0.30307418781677065,5.0,147.95268500000003
368,12.43640830174863,-0.4780929227007787,12.267435362866175,-0.1354014268310803,5.0,147.95268500000003
369,12.47020288952512,-0.8434086404669549,12.301229950642666,-0.4199757000116876,5.0,147.95268500000003
370,12.503997477301612,-1.0793776807207767,12.335024538419157,-0.667959817325925,5.0,147.95268500000003
371,12.537792065078103,-1.138317213186791,12.368819126195648,-0.9825115612506091,5.0,147.95268500000003
372,12.571586652854593,-1.0039856424426665,12.402613713972139,-1.341398317422122,5.0,147.95268500000003
373,12.605381240631084,-0.7014496711877205,12.43640830174863,-1.579584384452082,5.0,147.95268500000003
374,12.639175828407575,-0.30185788047441614,12.47020288952512,-1.4839800364301936,5.0,147.95268500000003
375,12.672970416184066,0.09456122441390945,13.010916293948975,-0.7290635308237813,-10.0,-295.90537000000006
376,12.706765003960557,0.40065966598018155,13.044710881725466,0.2024561723593912,-10.0,-295.90537000000006
377,12.740559591737046,0.5863040608446505,13.078505469501955,1.186350682648253,-10.0,-295.90537000000006
378,12.774354179513537,0.689401856178216,13.112300057278446,1.8830122562121656,-10.0,-295.90537000000006
379,12.808148767290028,0.7801850039409834,12.639175828407573,1.749210531368815,5.0,147.95268500000003
380,12.841943355066519,0.9004882442501051,12.672970416184064,1.4258790152393366,5.0,147.95268500000003
381,12.87573794284301,1.0184916583129413,12.706765003960555,0.8108846310153793,5.0,147.95268500000003
382,12.9095325306195,1.029350063680726,12.740559591737046,0.17496329310040765,5.0,147.95268500000003
383,12.943327118395992,0.8055350294054981,12.774354179513537,-0.29910526702912654,5.0,147.95268500000003
384,12.977121706172483,0.2746701561785902,12.808148767290028,-0.5931401651894901,5.0,147.95268500000003
385,13.010916293948974,-0.5126820540748198,13.348862171713883,-0.5662399558830026,-10.0,-295.90537000000006
386,13.044710881725464,-1.3633584265183025,13.382656759490374,-0.8891373184289675,-10.0,-295.90537000000006
387,13.078505469501955,-1.992713764228683,12.9095325306195,-1.3396084327096156,5.0,147.95268500000003
388,13.112300057278446,-2.138799491202385,12.943327118395992,-1.4934794766491735,5.0,147.95268500000003
389,13.146094645054937,-1.6940598209958706,12.977121706172483,-1.3255216730484718,5.0,147.95268500000003
390,13.179889232831428,-0.7833269019932132,13.517835110596337,-1.0231089165899312,-10.0,-295.90537000000006
391,13.213683820607919,0.2716791627237414,13.551629698372828,-0.16453365574198625,-10.0,-295.90537000000006
392,13.24747840838441,1.1035017165032417,13.585424286149319,0.79250642447182,-10.0,-295.90537000000006
393,13.2812729961609,1.4899019739619868,13.61921887392581,1.499918774239418,-10.0,-295.90537000000006
394,13.315067583937392,1.4655857947630895,13.146094645054937,2.070936537484217,5.0,147.95268500000003
395,13.348862171713883,1.2730155789294635,13.179889232831428,1.7547722548149445,5.0,147.95268500000003
396,13.382656759490374,1.176952481949245,13.213683820607919,1.1406065949074724,5.0,147.95268500000003
397,13.416451347266865,1.267904150966992,13.754397225031774,0.2121018841588431,-10.0,-295.90537000000006
398,13.450245935043355,1.3931405202998695,13.788191812808265,-0.2573917677868067,-10.0,-295.90537000000006
399,13.484040522819846,1.2653978430465163,13.821986400584755,-0.5495707666581584,-10.0,-295.90537000000006
400,13.517835110596337,0.6752840886949221,13.855780988361246,-0.7761161462194451,-10.0,-295.90537000000006
401,13.551629698372826,-0.3358037840480937,13.889575576137736,-1.0566814627444665,-10.0,-295.90537000000006
402,13.585424286149317,-1.4563133703862001,13.923370163914226,-1.395814600798114,-10.0,-295.90537000000006
403,13.619218873925808,-2.252850305372828,13.957164751690717,-1.646934419744521,-10.0,-295.90537000000006
404,13.6530134617023,-2.3981473758795397,13.990959339467208,-1.591757257797786,-10.0,-295.90537000000006
405,13.68680804947879,-1.846306869102146,14.0247539272437,-1.0872770086023285,-10.0,-295.90537000000006
406,13.720602637255281,-0.8562937296100699,14.05854851502019,-0.1847453991136984,-10.0,-295.90537000000006
407,13.754397225031772,0.14706485538172806,13.788191812808263,-0.25739176778679135,-1.0,-29.590537000000005
408,13.788191812808263,0.793102244408854,13.821986400584754,-0.5495707666581465,-1.0,-29.590537000000005
409,13.821986400584754,0.9410941595847866,13.855780988361245,-0.7761161462194304,-1.0,-29.590537000000005
410,13.855780988361245,0.7145934831662073,13.889575576137736,-1.0566814627444665,-1.0,-29.590537000000005
411,13.889575576137736,0.3812497559326596,13.720602637255281,0.8382280942616753,5.0,147.95268500000003
412,13.923370163914226,0.16008043346587902,13.754397225031772,0.21210188415886777,5.0,147.95268500000003
413,13.957164751690717,0.08571543302213797,13.788191812808263,-0.25739176778679135,5.0,147.95268500000003
414,13.990959339467208,0.020288105439393644,14.0247539272437,-1.0872770086023285,-1.0,-29.590537000000005
415,14.0247539272437,-0.20133099766871718,14.362699805008608,-0.5880747441016708,-10.0,-295.90537000000006
416,14.05854851502019,-0.6037837817800213,14.3964943927851,-0.9979123975643387,-10.0,-295.90537000000006
417,14.092343102796681,-1.0092272861461875,14.43028898056159,-1.4129226787512659,-10.0,-295.90537000000006
418,14.126137690573172,-1.1344751586364015,13.957164751690717,-1.646934419744521,5.0,147.95268500000003
419,14.159932278349663,-0.7849000162747656,13.990959339467208,-1.591757257797786,5.0,147.95268500000003
420,14.193726866126154,-0.008036868822195927,14.261316041679136,0.8084864281767563,-2.0,-59.18107400000001
421,14.227521453902645,0.9069125275593909,14.295110629455626,0.2415853368820701,-2.0,-59.18107400000001
422,14.261316041679136,1.5888366041081148,14.328905217232117,-0.2017763829915041,-2.0,-59.18107400000001
423,14.295110629455626,1.7941647416805009,14.126137690573172,1.7075600502442088,5.0,147.95268500000003
424,14.328905217232117,1.5241221415644597,14.159932278349663,2.091288633505499,5.0,147.95268500000003
425,14.362699805008607,0.981881249647518,14.193726866126152,1.9539602616422274,5.0,147.95268500000003
426,14.396494392785097,0.41855553045907395,14.227521453902643,1.444379077773383,5.0,147.95268500000003
427,14.430288980561588,-0.015642702082694495,14.49787815611457,-1.5997879153070818,-2.0,-59.18107400000001
428,14.46408356833808,-0.3220240080852393,14.531672743891061,-1.050257868968651,-2.0,-59.18107400000001
429,14.49787815611457,-0.5942737765152206,14.565467331667552,-0.11985113751145055,-2.0,-59.18107400000001
430,14.531672743891061,-0.9113217859711691,14.599261919444043,0.9062721981920121,-2.0,-59.18107400000001
431,14.565467331667552,-1.2617405698918636,14.396494392785097,-0.9979123975643169,5.0,147.95268500000003
432,14.599261919444043,-1.541868908297397,14.430288980561588,-1.4129226787512517,5.0,147.95268500000003
433,14.633056507220534,-1.6159977848683866,14.46408356833808,-1.6820623869601934,5.0,147.95268500000003
434,14.666851094997025,-1.3950278840129808,14.49787815611457,-1.5997879153070818,5.0,147.95268500000003
435,14.700645682773516,-0.8900599826240447,14.531672743891061,-1.050257868968651,5.0,147.95268500000003
436,14.734440270550007,-0.21617222747479664,14.802029446102988,-0.0961318634170811,-2.0,-59.18107400000001
437,14.768234858326498,0.45462324891925476,14.83582403387948,-0.4585886227775765,-2.0,-59.18107400000001
438,14.802029446102988,0.9680920698535411,14.633056507220534,1.6733116361643778,5.0,147.95268500000003
439,14.83582403387948,1.2493428863519698,14.666851094997025,1.9356917772807263,5.0,147.95268500000003
440,14.86961862165597,1.3155796767375367,14.700645682773516,1.6742068744671776,5.0,147.95268500000003
441,14.903413209432461,1.2372033743516198,14.734440270550007,1.0806561111141737,5.0,147.95268500000003
442,14.937207797208952,1.079869054913279,14.768234858326498,0.4263899901187518,5.0,147.95268500000003
443,14.971002384985443,0.8676541495908932,14.802029446102988,-0.0961318634170811,5.0,147.95268500000003
444,15.004796972761934,0.5867265142978332,15.072386148314916,-0.2986214869090909,-2.0,-59.18107400000001
445,15.038591560538425,0.22154825926182833,15.106180736091407,0.7605136409818241,-2.0,-59.18107400000001
446,15.072386148314916,-0.20336543169630306,15.139975323867898,1.5958360857340919,-2.0,-59.18107400000001
447,15.106180736091407,-0.6078671725713304,14.937207797208952,-1.5094959557659884,5.0,147.95268500000003
448,15.139975323867898,-0.8835331486671041,14.971002384985443,-1.7929948424320168,5.0,147.95268500000003
449,15.173769911644387,-0.9505927598969504,15.004796972761932,-1.7438082304771094,5.0,147.95268500000003
450,15.207564499420878,-0.806394931105314,15.038591560538423,-1.2241162548111055,5.0,147.95268500000003
451,15.241359087197369,-0.5289499342116647,15.072386148314914,-0.2986214869091396,5.0,147.95268500000003
452,15.27515367497386,-0.22962042492742654,15.613099552738769,0.8977698018877865,-10.0,-295.90537000000006
453,15.30894826275035,0.012434283428429827,15.139975323867896,1.5958360857340481,5.0,147.95268500000003
454,15.342742850526841,0.18675386842406422,15.173769911644387,1.9429957380453857,5.0,147.95268500000003
455,15.376537438303332,0.3341769956065471,15.207564499420878,1.7564434649623526,5.0,147.95268500000003
456,15.410332026079823,0.4914752526466377,15.241359087197369,1.208120362626696,5.0,147.95268500000003
457,15.444126613856314,0.6419670339749375,15.27515367497386,0.5674933821410183,5.0,147.95268500000003
458,15.477921201632805,0.7115910440698087,15.30894826275035,0.04470081150188431,5.0,147.95268500000003
459,15.511715789409296,0.6151094622256883,15.849661667174205,-0.5788821634579471,-10.0,-295.90537000000006
460,15.545510377185787,0.3189349095251841,15.883456254950696,-1.0306571072419908,-10.0,-295.90537000000006
461,15.579304964962278,-0.12328505877203098,15.917250842727187,-1.4546617958665078,-10.0,-295.90537000000006
462,15.613099552738769,-0.5852345954802026,15.951045430503678,-1.7789292429489392,-10.0,-295.90537000000006
463,15.64689414051526,-0.9241084656032705,15.984840018280169,-1.8456250884006051,-10.0,-295.90537000000006
464,15.68068872829175,-1.046056484864151,16.018634606056658,-1.5064099731536105,-10.0,-295.90537000000006
465,15.714483316068241,-0.9423238877929708,16.05242919383315,-0.7440110510151204,-10.0,-295.90537000000006
466,15.748277903844732,-0.6756352632615314,16.08622378160964,0.26791786522262323,-10.0,-295.90537000000006
467,15.782072491621223,-0.3316918941844834,16.12001836938613,1.2190079401214717,-10.0,-295.90537000000006
468,15.815867079397714,0.02394492680403548,15.64689414051526,1.5989595055845869,5.0,147.95268500000003
469,15.849661667174205,0.35232869030460323,15.68068872829175,1.8678395206990803,5.0,147.95268500000003
470,15.883456254950696,0.6159141655971628,15.714483316068241,1.6686660152525772,5.0,147.95268500000003
471,15.917250842727187,0.755842770090719,15.748277903844732,1.1449006313221737,5.0,147.95268500000003
472,15.951045430503678,0.7023268612772888,15.782072491621223,0.5102186250601781,5.0,147.95268500000003
473,15.984840018280169,0.41840167572969833,15.815867079397714,-0.07801334534380053,5.0,147.95268500000003
474,16.018634606056658,-0.051912611898852504,15.849661667174203,-0.5788821634579208,5.0,147.95268500000003
475,16.05242919383315,-0.5668560010036842,15.883456254950694,-1.030657107241967,5.0,147.95268500000003
476,16.08622378160964,-0.9227234854599564,15.917250842727185,-1.4546617958664856,5.0,147.95268500000003
477,16.12001836938613,-0.9376454386726448,15.951045430503676,-1.778929242948922,5.0,147.95268500000003
478,16.15381295716262,-0.548684923485516,15.984840018280167,-1.8456250884006016,5.0,147.95268500000003
479,16.187607544939112,0.13383293166597093,16.018634606056658,-1.5064099731536105,5.0,147.95268500000003
480,16.221402132715603,0.8595907238769434,16.05242919383315,-0.7440110510151204,5.0,147.95268500000003
481,16.255196720492094,1.353083075506992,16.08622378160964,0.26791786522262323,5.0,147.95268500000003
482,16.288991308268585,1.4461207270761391,16.12001836938613,1.2190079401214717,5.0,147.95268500000003
483,16.322785896045076,1.1482103479335577,16.15381295716262,1.8065668957098286,5.0,147.95268500000003
484,16.356580483821567,0.6171035920657565,16.187607544939112,1.882753302984083,5.0,147.95268500000003
485,16.390375071598058,0.058318586067480596,16.221402132715603,1.5131364868671053,5.0,147.95268500000003
486,16.42416965937455,-0.37818713849651714,16.255196720492094,0.9140247399343472,5.0,147.95268500000003
487,16.45796424715104,-0.6469268910126269,16.255196720492094,0.9140247399343472,6.0,177.54322200000001
488,16.49175883492753,-0.7875923302493724,16.52555342270402,-1.1633678991287388,-1.0,-29.590537000000005
489,16.52555342270402,-0.8655398524455714,16.559348010480512,-0.4256380822768953,-1.0,-29.590537000000005
490,16.559348010480512,-0.91611492157014,16.593142598257003,0.49974034163904624,-1.0,-29.590537000000005
491,16.593142598257003,-0.9237305868847666,16.626937186033494,1.30617322440006,-1.0,-29.590537000000005
492,16.626937186033494,-0.8391947463556632,16.931088476021912,-1.1522170031943217,-9.0,-266.314833
493,16.660731773809985,-0.6181325901784188,16.964883063798403,-1.3328408750602698,-9.0,-266.314833
494,16.694526361586476,-0.2586644736863567,16.998677651574894,-1.2385619236463443,-9.0,-266.314833
495,16.728320949362967,0.1799379888811507,17.032472239351385,-0.7805625951055174,-9.0,-266.314833
496,16.762115537139458,0.5914981965083715,17.066266827127876,-0.0365263006994235,-9.0,-266.314833
497,16.79591012491595,0.8712010331240281,17.100061414904367,0.7544875034177969,-9.0,-266.314833
498,16.82970471269244,0.9736478647839215,17.133856002680858,1.3052056271666703,-9.0,-266.314833
499,16.86349930046893,0.9400527787511137,16.660731773809985,1.727470298071746,6.0,177.54322200000001
500,16.89729388824542,0.8698390592953871,16.694526361586476,1.6704498330608828,6.0,177.54322200000001
501,16.931088476021912,0.8494689807049878,16.728320949362967,1.2437364936706223,6.0,177.54322200000001
502,16.964883063798403,0.880899747684934,16.762115537139458,0.6704329132882093,6.0,177.54322200000001
503,16.998677651574894,0.858116134137978,16.79591012491595,0.14895876601653937,6.0,177.54322200000001
504,17.032472239351385,0.6197446019586423,16.82970471269244,-0.24467120836369272,6.0,177.54322200000001
505,17.066266827127876,0.06084440621858821,17.100061414904367,0.7544875034177969,-1.0,-29.590537000000005
506,17.100061414904367,-0.7618065651849512,16.89729388824542,-0.8564470629158276,6.0,177.54322200000001
507,17.133856002680858,-1.6101496947100857,16.931088476021912,-1.1522170031943217,6.0,177.54322200000001
508,17.16765059045735,-2.1642095056324093,16.964883063798403,-1.3328408750602698,6.0,177.54322200000001
509,17.20144517823384,-2.1915170808966624,16.998677651574894,-1.2385619236463443,6.0,177.54322200000001
510,17.235239766010327,-1.681644693345738,17.03247223935138,-0.7805625951055655,6.0,177.54322200000001
511,17.269034353786818,-0.8581585064458892,17.066266827127873,-0.03652630069950169,6.0,177.54322200000001
512,17.30282894156331,-0.05911392270200863,17.100061414904363,0.7544875034177138,6.0,177.54322200000001
513,17.3366235293398,0.4404610792486419,17.133856002680854,1.3052056271666124,6.0,177.54322200000001
514,17.37041811711629,0.5584286322184815,17.167650590457345,1.4321117974793434,6.0,177.54322200000001
515,17.40421270489278,0.4156397388953125,17.201445178233836,1.1475430640481945,6.0,177.54322200000001
516,17.438007292669273,0.23071324170126753,17.235239766010327,0.6336936651007709,6.0,177.54322200000001
517,17.471801880445764,0.17541970684778874,17.269034353786818,0.12077356605399928,6.0,177.54322200000001
518,17.505596468222254,0.2843440239196493,17.30282894156331,-0.2465801005811623,6.0,177.54322200000001
519,17.539391055998745,0.465365990040021,17.3366235293398,-0.4687027439733878,6.0,177.54322200000001
520,17.573185643775236,0.5865642622636019,17.877336933763655,-0.8184929541554989,-9.0,-266.314833
521,17.606980231551727,0.5742742889652904,17.40421270489278,-0.8609380517571448,6.0,177.54322200000001
522,17.640774819328218,0.4628106499113986,17.438007292669273,-1.0946227718166643,6.0,177.54322200000001
523,17.67456940710471,0.37005882304417015,17.471801880445764,-1.2045221518817115,6.0,177.54322200000001
524,17.7083639948812,0.41448479314083503,17.505596468222254,-1.0186569187060994,6.0,177.54322200000001
525,17.74215858265769,0.6245184697690745,17.539391055998745,-0.46466873359299965,6.0,177.54322200000001
526,17.77595317043418,0.9022615709850992,16.762115537139458,0.6704329132882093,30.0,887.7161100000002
527,17.809747758210673,1.074107583529722,16.79591012491595,0.14895876601653937,30.0,887.7161100000002
528,17.843542345987164,1.0010721970951397,16.82970471269244,-0.24467120836369272,30.0,887.7161100000002
529,17.877336933763655,0.6731725691342351,17.133856002680854,1.3052056271666124,22.0,650.9918140000001
530,17.911131521540145,0.2182057868345629,17.167650590457345,1.4321117974793434,22.0,650.9918140000001
531,17.944926109316636,-0.18323563968371656,17.201445178233836,1.1475430640481945,22.0,650.9918140000001
532,17.978720697093127,-0.41579921334490905,17.471801880445764,-1.2045221518817115,15.0,443.8580550000001
533,18.012515284869618,-0.497653121498902,17.505596468222254,-1.0186569187060994,15.0,443.8580550000001
534,18.04630987264611,-0.5539597537979526,17.539391055998745,-0.46466873359299965,15.0,443.8580550000001
535,18.0801044604226,-0.7162886866360128,17.573185643775236,0.3470518261121864,15.0,443.8580550000001
536,18.11389904819909,-1.0179121699352414,17.606980231551727,1.1509175205566264,15.0,443.8580550000001
537,18.147693635975582,-1.3574539708890527,17.640774819328218,1.655448154651605,15.0,443.8580550000001
538,18.181488223752073,-1.5565664924262372,17.67456940710471,1.6953137821550024,15.0,443.8580550000001
539,18.215282811528564,-1.4725850465649661,17.7083639948812,1.3101295858053417,15.0,443.8580550000001
540,18.249077399305055,-1.0914119388314978,17.74215858265769,0.7030429672872803,15.0,443.8580550000001
541,18.282871987081545,-0.5415240354961877,17.77595317043418,0.11166728157355567,15.0,443.8580550000001
542,18.316666574858036,-0.020886265375595816,17.809747758210673,-0.321853475766516,15.0,443.8580550000001
543,18.350461162634527,0.31760592100020546,17.843542345987164,-0.6005143762655966,15.0,443.8580550000001
544,18.38425575041102,0.4489492302893484,17.877336933763655,-0.8184929541554989,15.0,443.8580550000001
545,18.41805033818751,0.47135059391801265,17.911131521540145,-1.04973226790228,15.0,443.8580550000001
546,18.451844925964,0.5166646365189483,17.944926109316636,-1.2616066893198659,15.0,443.8580550000001
547,18.48563951374049,0.6409718383179706,17.978720697093127,-1.317242716386763,15.0,443.8580550000001
548,18.519434101516982,0.7769779811913552,18.012515284869618,-1.0685335300338947,15.0,443.8580550000001
549,18.553228689293473,0.7837496598522032,19.026352918164346,-0.7138589070702922,-14.0,-414.26751800000005
550,18.587023277069964,0.5565637978668756,19.060147505940837,0.04905966021033015,-14.0,-414.26751800000005
551,18.620817864846455,0.11739279174801193,19.093942093717327,0.8796990098193375,-14.0,-414.26751800000005
552,18.654612452622946,-0.3770090138800066,19.12773668149382,1.4769805493225985,-14.0,-414.26751800000005
553,18.688407040399436,-0.7145750612875951,19.16153126927031,1.634319642865864,-14.0,-414.26751800000005
554,18.722201628175927,-0.7427414047628039,18.688407040399436,1.4832676377538796,1.0,29.590537000000005
555,18.75599621595242,-0.4464726699616071,18.722201628175927,0.9965011211187266,1.0,29.590537000000005
556,18.78979080372891,0.05434181876047082,18.75599621595242,0.42281177441310724,1.0,29.590537000000005
557,18.8235853915054,0.5778433735920848,18.78979080372891,-0.04995111579544613,1.0,29.590537000000005
558,18.85737997928189,0.9725886540563771,18.8235853915054,-0.36681330515938965,1.0,29.590537000000005
559,18.89117456705838,1.1754484441274982,18.857379979281887,-0.5961009994060434,1.0,29.590537000000005
560,18.92496915483487,1.2093169602101943,18.89117456705838,-0.8334113236119708,1.0,29.590537000000005
561,18.95876374261136,1.1324282461310329,18.92496915483487,-1.0921979337888994,1.0,29.590537000000005
562,18.99255833038785,0.9785701808397812,18.95876374261136,-1.2624109240596537,1.0,29.590537000000005
563,19.026352918164342,0.7307411553088858,18.99255833038785,-1.1719917814902534,1.0,29.590537000000005
564,19.060147505940833,0.3458138483891858,19.026352918164342,-0.7138589070703724,1.0,29.590537000000005
565,19.093942093717324,-0.1892714038539623,19.060147505940833,0.04905966021024283,1.0,29.590537000000005
566,19.127736681493815,-0.811404326062211,19.093942093717324,0.8796990098192746,1.0,29.590537000000005
567,19.161531269270306,-1.3798889237371397,19.127736681493815,1.476980549322582,1.0,29.590537000000005
568,19.195325857046797,-1.725828550738363,18.654612452622942,1.6543248895347906,16.0,473.4485920000001
569,19.229120444823288,-1.7277952455481835,18.688407040399433,1.4832676377538976,16.0,473.4485920000001
570,19.26291503259978,-1.373022804154559,18.722201628175924,0.9965011211187778,16.0,473.4485920000001
571,19.29670962037627,-0.7694155586683227,18.755996215952415,0.42281177441316764,16.0,473.4485920000001
572,19.33050420815276,-0.10015539430502657,18.789790803728906,-0.04995111579539646,16.0,473.4485920000001
573,19.36429879592925,0.4544794019367619,18.823585391505397,-0.36681330515935634,16.0,473.4485920000001
574,19.398093383705742,0.7853740206996898,18.857379979281887,-0.5961009994060434,16.0,473.4485920000001
575,19.431887971482233,0.8788425805426618,18.89117456705838,-0.8334113236119708,16.0,473.4485920000001
576,19.465682559258724,0.7912161292161756,18.92496915483487,-1.0921979337888994,16.0,473.4485920000001
577,19.499477147035215,0.596350975978132,18.95876374261136,-1.2624109240596537,16.0,473.4485920000001
578,19.533271734811706,0.33984175419479756,18.99255833038785,-1.1719917814902534,16.0,473.4485920000001
579,19.567066322588197,0.025931241686588134,19.026352918164342,-0.7138589070703724,16.0,473.4485920000001
580,19.600860910364688,-0.35596916395369,19.060147505940833,0.04905966021024283,16.0,473.4485920000001
581,19.63465549814118,-0.7830075168297654,19.093942093717324,0.8796990098192746,16.0,473.4485920000001
582,19.66845008591767,-1.1671129519156662,19.127736681493815,1.476980549322582,16.0,473.4485920000001
583,19.70224467369416,-1.3736094651787203,19.66845008591767,1.7781953881480128,1.0,29.590537000000005
584,19.73603926147065,-1.2880081447013239,19.70224467369416,1.5115900181889965,1.0,29.590537000000005
585,19.769833849247142,-0.8875558027876764,19.73603926147065,0.959351025138276,1.0,29.590537000000005
586,19.803628437023633,-0.2657210855544297,19.769833849247142,0.37922280641638423,1.0,29.590537000000005
587,19.837423024800124,0.4087520221348326,19.803628437023633,-0.054919850221751686,1.0,29.590537000000005
588,19.871217612576615,0.9705589219443524,19.837423024800124,-0.3285365406768702,1.0,29.590537000000005
589,19.905012200353106,1.3248026782267919,19.871217612576615,-0.5472425551777746,1.0,29.590537000000005
590,19.938806788129597,1.4657866398901847,19.905012200353106,-0.8181561669857185,1.0,29.590537000000005
591,19.972601375906088,1.4441896920540616,19.938806788129597,-1.1364692435416197,1.0,29.590537000000005
592,20.00639596368258,1.3112478177477593,19.972601375906088,-1.357123733110572,1.0,29.590537000000005
593,20.04019055145907,1.081571752262227,20.00639596368258,-1.2762677332542602,1.0,29.590537000000005
594,20.07398513923556,0.740351985747741,20.04019055145907,-0.7743099844468729,1.0,29.590537000000005
595,20.10777972701205,0.28616810833639067,20.07398513923556,0.073332483822957,1.0,29.590537000000005
596,20.141574314788542,-0.2270728925668463,20.10777972701205,0.9980737810661902,1.0,29.590537000000005
597,20.175368902565033,-0.6867103881135358,20.141574314788542,1.6628965373308982,1.0,29.590537000000005
598,20.209163490341524,-0.9676731655522586,20.175368902565033,1.8373588021012137,1.0,29.590537000000005
599,20.242958078118015,-1.0026716367801187,20.209163490341524,1.5130592448185003,1.0,29.590537000000005
600,20.276752665894506,-0.8272250209575996,20.242958078118015,0.8878852612253296,1.0,29.590537000000005
601,20.310547253670997,-0.5604763499448638,20.276752665894506,0.23460625143869923,1.0,29.590537000000005
602,20.344341841447488,-0.3261987627036935,20.310547253670997,-0.2565813551628479,1.0,29.590537000000005
603,20.37813642922398,-0.16858376622634244,20.310547253670997,-0.2565813551628479,2.0,59.18107400000001
604,20.41193101700047,-0.030672411121732444,20.37813642922398,-0.7820397383051367,1.0,29.590537000000005
605,20.44572560477696,0.18155002697134048,20.41193101700047,-1.0306835204712552,1.0,29.590537000000005
606,20.47952019255345,0.49728779804876877,20.44572560477696,-1.3089576928208537,1.0,29.590537000000005
607,20.51331478032994,0.824323481377916,20.479520192553448,-1.4827274426726218,1.0,29.590537000000005
608,20.54710936810643,0.9869983141570846,20.51331478032994,-1.364222306972044,1.0,29.590537000000005
609,20.58090395588292,0.834062744568433,20.54710936810643,-0.8509187074428117,1.0,29.590537000000005
610,20.61469854365941,0.340316259434928,20.58090395588292,-0.025429010395301814,1.0,29.590537000000005
611,20.648493131435902,-0.364571972715148,20.61469854365941,0.8567278608491652,1.0,29.590537000000005
612,20.682287719212393,-1.0528658938810627,20.648493131435902,1.4908230051096891,1.0,29.590537000000005
613,20.716082306988884,-1.501542404654419,20.682287719212393,1.6813391862349367,1.0,29.590537000000005
614,20.749876894765375,-1.5830112158586795,20.716082306988884,1.4341593036604872,1.0,29.590537000000005
615,20.783671482541866,-1.3033730269872539,20.749876894765375,0.9272032396446507,1.0,29.590537000000005
616,20.817466070318357,-0.7813241447851427,20.783671482541866,0.3863563759569655,1.0,29.590537000000005
617,20.851260658094848,-0.18778797106279455,20.817466070318357,-0.04633946275422542,1.0,29.590537000000005
618,20.88505524587134,0.3227736856757326,20.851260658094848,-0.366686011151128,1.0,29.590537000000005
619,20.91884983364783,0.6613300111405265,20.88505524587134,-0.6568379241530531,1.0,29.590537000000005
620,20.95264442142432,0.8172512252158654,20.91884983364783,-0.9736407114961404,1.0,29.590537000000005
621,20.98643900920081,0.8350848000977806,20.95264442142432,-1.2622642825459223,1.0,29.590537000000005
622,21.020233596977302,0.7706153548053929,20.98643900920081,-1.3625275690741987,1.0,29.590537000000005
623,21.054028184753793,0.6520626074639525,21.020233596977302,-1.1106032194414575,1.0,29.590537000000005
624,21.087822772530284,0.47045300255104594,21.054028184753793,-0.4694780869315852,1.0,29.590537000000005
625,21.121617360306775,0.20499500017041158,21.087822772530284,0.4048308391147398,1.0,29.590537000000005
626,21.155411948083266,-0.13536435893319795,21.121617360306775,1.216203254701428,1.0,29.590537000000005
627,21.189206535859757,-0.48504045587940847,21.155411948083266,1.6755890928120456,1.0,29.590537000000005
628,21.223001123636248,-0.731756234601171,21.189206535859757,1.6512229258089373,1.0,29.590537000000005
629,21.25679571141274,-0.7640879863794983,21.223001123636248,1.2263466746053309,1.0,29.590537000000005
630,21.29059029918923,-0.5342692817429936,21.25679571141274,0.6305629205732529,1.0,29.590537000000005
631,21.32438488696572,-0.09875645939396871,21.29059029918923,0.09429186215741145,1.0,29.590537000000005
632,21.35817947474221,0.3960081054901296,21.32438488696572,-0.2771678038555452,1.0,29.590537000000005
633,21.391974062518702,0.7839890405563757,21.35817947474221,-0.5319447082622071,1.0,29.590537000000005
634,21.425768650295193,0.9661257201384406,21.35817947474221,-0.5319447082622071,2.0,59.18107400000001
635,21.459563238071684,0.9546514357268598,21.391974062518702,-0.7918181081440799,2.0,59.18107400000001
636,21.493357825848175,0.8414654289249746,21.425768650295193,-1.1247503521980629,2.0,59.18107400000001
637,21.527152413624666,0.7115254760729907,21.459563238071684,-1.4600058506277656,2.0,59.18107400000001
638,21.560947001401157,0.567519519945727,21.493357825848175,-1.6077601233734675,2.0,59.18107400000001
639,21.594741589177648,0.3290058950153924,21.527152413624666,-1.3762716226346343,2.0,59.18107400000001
640,21.62853617695414,-0.088059292344675,21.560947001401157,-0.7129345920193909,2.0,59.18107400000001
641,21.66233076473063,-0.67344736273613,21.594741589177648,0.22574096917863432,2.0,59.18107400000001
642,21.69612535250712,-1.2863016513104548,22.135454993601503,1.049758699779004,-13.0,-384.67698100000007
643,21.72991994028361,-1.7120883743946396,21.932687466942557,-0.9006289968115413,-6.0,-177.54322200000001
644,21.763714528060103,-1.7764828191011932,21.69612535250712,1.7322854963546226,2.0,59.18107400000001
645,21.797509115836593,-1.4448077973866642,21.72991994028361,1.3442255874137867,2.0,59.18107400000001
646,21.831303703613084,-0.8469025519605552,21.763714528060103,0.7507919449065127,2.0,59.18107400000001
647,21.865098291389575,-0.21016228789277133,21.797509115836593,0.20302664632080533,2.0,59.18107400000001
648,21.898892879166066,0.26256374451347575,21.831303703613084,-0.165905608441077,2.0,59.18107400000001
649,21.932687466942557,0.49720750601056,21.865098291389575,-0.38830612714369417,2.0,59.18107400000001
650,21.966482054719048,0.5701345327030325,21.898892879166066,-0.5978087959452719,2.0,59.18107400000001
651,22.00027664249554,0.6340616041270044,21.932687466942557,-0.9006289968115413,2.0,59.18107400000001
652,22.03407123027203,0.7972585652176765,21.966482054719048,-1.268301296145529,2.0,59.18107400000001
653,22.06786581804852,1.0366641162099899,22.00027664249554,-1.5249488046852224,2.0,59.18107400000001
654,22.10166040582501,1.203703189366838,22.03407123027203,-1.444045601354763,2.0,59.18107400000001
655,22.135454993601503,1.1195250395151128,22.06786581804852,-0.899174123589537,2.0,59.18107400000001
656,22.16924958137799,0.6969133028873741,22.101660405825008,0.026724273784132224,2.0,59.18107400000001
657,22.20304416915448,0.010740518101416753,22.1354549936015,1.0497586997788966,2.0,59.18107400000001
658,22.236838756930972,-0.7234549235935026,22.16924958137799,1.815529488893675,2.0,59.18107400000001
659,22.270633344707463,-1.243842577328864,22.20304416915448,2.0764776926453634,2.0,59.18107400000001
660,22.304427932483954,-1.3544018381529606,22.236838756930972,1.808740475119717,2.0,59.18107400000001
661,22.338222520260445,-1.002798746668687,22.270633344707463,1.2001813005735051,2.0,59.18107400000001
662,22.372017108036935,-0.2971802653329971,22.304427932483954,0.5245230534061845,2.0,59.18107400000001
663,22.405811695813426,0.5386585007989672,22.338222520260445,-0.014118429334329871,2.0,59.18107400000001
664,22.439606283589917,1.250846464047423,22.372017108036935,-0.370933140038228,2.0,59.18107400000001
665,22.473400871366408,1.6462030798083633,22.405811695813426,-0.6376390578363769,2.0,59.18107400000001
666,22.5071954591429,1.650487430758341,22.439606283589917,-0.9330263392304016,2.0,59.18107400000001
667,22.54099004691939,1.311489499083399,22.473400871366408,-1.2840412132147516,2.0,59.18107400000001
668,22.57478463469588,0.7522287081187389,22.5071954591429,-1.5772274661567114,2.0,59.18107400000001
669,22.608579222472372,0.10507356448269903,22.54099004691939,-1.6151592309527882,2.0,59.18107400000001
670,22.642373810248863,-0.5353665104055352,22.57478463469588,-1.2458617411593547,2.0,59.18107400000001
671,22.676168398025354,-1.1188351208269824,22.608579222472372,-0.4836288450333837,2.0,59.18107400000001
672,22.709962985801845,-1.612507726932494,22.642373810248863,0.4608984672262141,2.0,59.18107400000001
673,22.743757573578335,-1.9696078322131585,22.94652510023728,-0.7580614092510595,-6.0,-177.54322200000001
674,22.777552161354826,-2.123041546030267,22.709962985801845,1.6754425992715873,2.0,59.18107400000001
675,22.811346749131317,-2.0124952837739603,22.743757573578335,1.5943539854298208,2.0,59.18107400000001
676,22.84514133690781,-1.6258022709610016,22.777552161354826,1.1492126464895676,2.0,59.18107400000001
677,22.8789359246843,-1.0214432941428253,22.811346749131317,0.5774509846071129,2.0,59.18107400000001
678,22.91273051246079,-0.31166578875633877,22.84514133690781,0.0863876755550453,2.0,59.18107400000001
679,22.94652510023728,0.38278945354214944,22.8789359246843,-0.25047893737649135,2.0,59.18107400000001
680,22.980319688013772,0.9725664529627176,22.91273051246079,-0.49589797499329785,2.0,59.18107400000001
681,23.014114275790263,1.4086535632522936,22.94652510023728,-0.7580614092510595,2.0,59.18107400000001
682,23.047908863566754,1.6653897710877705,22.980319688013772,-1.074087336909899,2.0,59.18107400000001
683,23.081703451343245,1.723316335518733,22.777552161354826,1.1492126464895676,9.0,266.314833
684,23.115498039119736,1.5703023719128335,23.047908863566754,-1.402317730208269,2.0,59.18107400000001
685,23.149292626896226,1.217658819847474,23.081703451343245,-1.077280230212157,2.0,59.18107400000001
686,23.183087214672717,0.7157340212161207,23.115498039119736,-0.3727894647503968,2.0,59.18107400000001
687,23.21688180244921,0.15543603369126907,23.149292626896226,0.5231366548163489,2.0,59.18107400000001
688,23.2506763902257,-0.350344896479264,23.183087214672717,1.3091010235833977,2.0,59.18107400000001
689,23.28447097800219,-0.7008091178714378,23.21688180244921,1.7201743278638386,2.0,59.18107400000001
690,23.31826556577868,-0.8401079245008208,23.2506763902257,1.6590663971276476,2.0,59.18107400000001
691,23.352060153555172,-0.7695259314629663,23.28447097800219,1.2293021447907553,2.0,59.18107400000001
692,23.385854741331663,-0.5333435076405524,23.31826556577868,0.6555918598669794,2.0,59.18107400000001
693,23.419649329108154,-0.19306546148036519,23.352060153555172,0.14757291307814863,2.0,59.18107400000001
694,23.453443916884645,0.18771165006179416,23.385854741331663,-0.20612413370437338,2.0,59.18107400000001
695,23.487238504661136,0.5397686129977257,23.419649329108154,-0.4520946677103591,2.0,59.18107400000001
696,23.521033092437627,0.7818116079041505,23.453443916884645,-0.694805498481242,2.0,59.18107400000001
697,23.554827680214117,0.8351876958401556,23.487238504661136,-0.9857304978489483,2.0,59.18107400000001
698,23.58862226799061,0.6633454218216671,23.521033092437627,-1.2568423938429667,2.0,59.18107400000001
699,23.6224168557671,0.30642798667950627,23.554827680214117,-1.3467117417158294,2.0,59.18107400000001
700,23.65621144354359,-0.12754208253386112,23.58862226799061,-1.106114450199238,2.0,59.18107400000001
701,23.69000603132008,-0.5191632780129213,23.6224168557671,-0.5148000809105915,2.0,59.18107400000001
702,23.723800619096572,-0.7990032322640289,23.926568145755517,-0.4208599512989719,-6.0,-177.54322200000001
703,23.757595206873063,-0.9635013729968186,23.96036273353201,-0.6017549841880493,-6.0,-177.54322200000001
704,23.79138979464955,-1.0386829610114574,23.994157321308496,-0.8639773488018313,-6.0,-177.54322200000001
705,23.82518438242604,-1.0332549661590853,23.75759520687306,1.3209798740352776,2.0,59.18107400000001
706,23.858978970202532,-0.9260546847930321,23.79138979464955,0.9421976673635422,2.0,59.18107400000001
707,23.892773557979023,-0.693385842863264,23.82518438242604,0.4390168084732845,2.0,59.18107400000001
708,23.926568145755514,-0.3442755430895957,23.858978970202532,0.012311413398128437,2.0,59.18107400000001
709,23.960362733532005,0.06967970816876348,23.892773557979023,-0.2556875965927802,2.0,59.18107400000001
710,23.994157321308496,0.475237136929401,23.926568145755514,-0.4208599512989529,2.0,59.18107400000001
711,24.027951909084987,0.8084744311996928,23.960362733532005,-0.6017549841880218,2.0,59.18107400000001
712,24.061746496861478,1.0324586769193405,23.994157321308496,-0.8639773488018313,2.0,59.18107400000001
713,24.09554108463797,1.1344510763486557,24.027951909084987,-1.1443542953500965,2.0,59.18107400000001
714,24.12933567241446,1.1117253236831022,24.061746496861478,-1.269460962687519,2.0,59.18107400000001
715,24.16313026019095,0.9605817734601165,24.09554108463797,-1.062214257415678,2.0,59.18107400000001
716,24.19692484796744,0.6789836191259123,24.12933567241446,-0.47071118521039595,2.0,59.18107400000001
717,24.230719435743932,0.28260310733045074,24.16313026019095,0.36645145516726313,2.0,59.18107400000001
718,24.264514023520423,-0.17844355374785267,24.46728155017937,-0.573579578206501,-6.0,-177.54322200000001
719,24.298308611296914,-0.6196152896433064,24.46728155017937,-0.573579578206501,-5.0,-147.95268500000003
720,24.332103199073405,-0.94599535052006,24.50107613795586,-0.8335848962614226,-5.0,-147.95268500000003
721,24.365897786849896,-1.0881206554543799,24.53487072573235,-1.10919643753324,-5.0,-147.95268500000003
722,24.399692374626387,-1.025426952560027,24.332103199073405,0.7288576446616458,2.0,59.18107400000001
723,24.433486962402878,-0.7831202477716631,24.602459901285332,-1.0651980644829184,-5.0,-147.95268500000003
724,24.46728155017937,-0.41264027379294743,24.636254489061823,-0.514825643293535,-5.0,-147.95268500000003
725,24.50107613795586,0.022542506795778322,24.670049076838314,0.2786730991211894,-5.0,-147.95268500000003
726,24.53487072573235,0.4488216315165934,24.703843664614805,1.0410818429856874,-5.0,-147.95268500000003
727,24.56866531350884,0.7854874993468143,24.46728155017937,-0.573579578206501,3.0,88.77161100000001
728,24.602459901285332,0.9608954645606828,24.50107613795586,-0.8335848962614226,3.0,88.77161100000001
729,24.636254489061823,0.933606006769235,24.53487072573235,-1.10919643753324,3.0,88.77161100000001
730,24.670049076838314,0.6999440972666072,24.56866531350884,-1.243889183441095,3.0,88.77161100000001
731,24.703843664614805,0.2844095056427873,24.87281660349726,-0.06528569245191834,-5.0,-147.95268500000003
732,24.737638252391296,-0.2683465086691247,24.90661119127375,-0.4501266971635684,-5.0,-147.95268500000003
733,24.771432840167787,-0.8824095202584752,24.94040577905024,-0.6933244339898831,-5.0,-147.95268500000003
734,24.805227427944278,-1.4322836198049815,24.974200366826732,-0.898498551610788,-5.0,-147.95268500000003
735,24.83902201572077,-1.7545765513642917,25.007994954603223,-1.137650662154769,-5.0,-147.95268500000003
736,24.87281660349726,-1.7110254826567473,25.041789542379714,-1.3680531870416606,-5.0,-147.95268500000003
737,24.90661119127375,-1.2720380813079208,25.075584130156205,-1.4387312892214164,-5.0,-147.95268500000003
738,24.94040577905024,-0.5533163246923357,25.109378717932696,-1.1870631553112037,-5.0,-147.95268500000003
739,24.974200366826732,0.23629059067270727,25.143173305709187,-0.5641574170294446,-5.0,-147.95268500000003
740,25.007994954603223,0.9053331440570901,25.176967893485678,0.2967427813901525,-5.0,-147.95268500000003
741,25.041789542379714,1.3677118707549598,25.21076248126217,1.1221380506806256,-5.0,-147.95268500000003
742,25.075584130156205,1.6465781977691065,25.24455706903866,1.6320207300936143,-5.0,-147.95268500000003
743,25.109378717932696,1.8023184096637554,25.27835165681515,1.6838449656431365,-5.0,-147.95268500000003
744,25.143173305709187,1.85002982528519,25.31214624459164,1.3362445009510096,-5.0,-147.95268500000003
745,25.176967893485678,1.7326411399504162,25.075584130156205,-1.4387312892214164,3.0,88.77161100000001
746,25.21076248126217,1.3667167326137797,25.109378717932696,-1.1870631553112037,3.0,88.77161100000001
747,25.24455706903866,0.7231600569820553,25.143173305709187,-0.5641574170294446,3.0,88.77161100000001
748,25.27835165681515,-0.11557672114611217,25.447324595697605,-0.327361669881084,-5.0,-147.95268500000003
749,25.31214624459164,-0.9609079861753057,25.481119183474096,-0.5583150622707498,-5.0,-147.95268500000003
750,25.345940832368132,-1.5868384313361048,25.514913771250587,-0.8466458312062081,-5.0,-147.95268500000003
751,25.379735420144623,-1.827768610801797,25.548708359027078,-1.1453151597995717,-5.0,-147.95268500000003
752,25.413530007921114,-1.6544589365176787,25.58250294680357,-1.2943463679062328,-5.0,-147.95268500000003
753,25.4473245956976,-1.1857741789679423,25.616297534580056,-1.1185502720514007,-5.0,-147.95268500000003
754,25.481119183474092,-0.6261257316010426,25.37973542014462,0.28356504004292804,3.0,88.77161100000001
755,25.514913771250583,-0.16182495672276462,25.41353000792111,-0.08203944377819927,3.0,88.77161100000001
756,25.548708359027074,0.12250994253125852,25.4473245956976,-0.32736166988105975,3.0,88.77161100000001
757,25.582502946803565,0.2591780202146251,25.481119183474092,-0.5583150622707195,3.0,88.77161100000001
758,25.616297534580056,0.34345340050373696,25.514913771250583,-0.8466458312061766,3.0,88.77161100000001
759,25.650092122356547,0.45311297063465295,25.548708359027074,-1.145315159799556,3.0,88.77161100000001
760,25.683886710133038,0.5923837095601349,25.852859649015492,0.7887726888560155,-5.0,-147.95268500000003
761,25.71768129790953,0.6882223799407186,25.886654236791983,0.24283996527213,-5.0,-147.95268500000003
762,25.75147588568602,0.6352505704693046,25.920448824568474,-0.16359334108089138,-5.0,-147.95268500000003
763,25.78527047346251,0.362919273411701,25.954243412344965,-0.4402669050310525,-5.0,-147.95268500000003
764,25.819065061239,-0.1095615979538121,25.988038000121456,-0.685372572248561,-5.0,-147.95268500000003
765,25.852859649015492,-0.6591690111764187,26.021832587897947,-0.9771093529929877,-5.0,-147.95268500000003
766,25.886654236791983,-1.0975198853140302,26.055627175674438,-1.2846899280444166,-5.0,-147.95268500000003
767,25.920448824568474,-1.2496370627739766,26.08942176345093,-1.4621066271872443,-5.0,-147.95268500000003
768,25.954243412344965,-1.0385395166394713,25.852859649015492,0.7887726888560155,3.0,88.77161100000001
769,25.988038000121456,-0.5312010445866302,25.886654236791983,0.24283996527213,3.0,88.77161100000001
770,26.021832587897947,0.08613401853866635,25.920448824568474,-0.16359334108089138,3.0,88.77161100000001
771,26.055627175674438,0.5979170158179226,25.954243412344965,-0.4402669050310525,3.0,88.77161100000001
772,26.08942176345093,0.8651806831846133,26.224600114556893,0.7715332106362851,-4.0,-118.36214800000002
773,26.12321635122742,0.8828074888134051,26.258394702333383,1.3100601863402155,-4.0,-118.36214800000002
774,26.15701093900391,0.7555357508214079,26.055627175674438,-1.2846899280444166,3.0,88.77161100000001
775,26.1908055267804,0.6149158065719285,26.08942176345093,-1.4621066271872443,3.0,88.77161100000001
776,26.224600114556893,0.5336158617173677,26.12321635122742,-1.3345911029355615,3.0,88.77161100000001
777,26.258394702333383,0.4874326980638732,26.15701093900391,-0.8251883008475279,3.0,88.77161100000001
778,26.292189290109874,0.3831099027476509,26.46116222899233,-0.28800527390068675,-5.0,-147.95268500000003
779,26.325983877886365,0.1334838108408083,26.49495681676882,-0.3834466478588155,-5.0,-147.95268500000003
780,26.359778465662856,-0.2652311948413617,26.52875140454531,-0.5798276386869948,-5.0,-147.95268500000003
781,26.393573053439347,-0.7034604806059266,26.5625459923218,-0.8866125984417993,-5.0,-147.95268500000003
782,26.427367641215838,-0.9994889432082572,26.596340580098293,-1.1609472783392598,-5.0,-147.95268500000003
783,26.46116222899233,-0.9930311857111221,26.630135167874784,-1.1842904321181689,-5.0,-147.95268500000003
784,26.49495681676882,-0.6396383179768635,26.663929755651274,-0.8052660671848624,-5.0,-147.95268500000003
785,26.52875140454531,-0.05120264421751736,26.697724343427765,-0.059224586953770524,-5.0,-147.95268500000003
786,26.5625459923218,0.54513242023216,26.731518931204256,0.8176160091993978,-5.0,-147.95268500000003
787,26.596340580098293,0.9132958596285589,26.765313518980747,1.4981997687247581,-5.0,-147.95268500000003
788,26.630135167874784,0.9242763710114704,26.799108106757238,1.7358722205234756,-5.0,-147.95268500000003
789,26.663929755651274,0.6153945104644867,26.83290269453373,1.4905568011912202,-5.0,-147.95268500000003
790,26.697724343427765,0.15631569451173755,26.86669728231022,0.9319502962352232,-5.0,-147.95268500000003
791,26.731518931204256,-0.2569890100624028,26.90049187008671,0.32287236438652556,-5.0,-147.95268500000003
792,26.765313518980747,-0.5110101276717469,26.9342864578632,-0.13757459931446728,-5.0,-147.95268500000003
793,26.799108106757238,-0.6159156441807427,26.968081045639693,-0.41058213466967514,-5.0,-147.95268500000003
794,26.83290269453373,-0.6585747005526287,26.968081045639693,-0.41058213466967514,-4.0,-118.36214800000002
795,26.86669728231022,-0.7098187933078877,27.001875633416184,-0.5981478397074685,-4.0,-118.36214800000002
796,26.90049187008671,-0.758174385740166,27.035670221192674,-0.8289519270644796,-4.0,-118.36214800000002
797,26.9342864578632,-0.7187630157790929,27.069464808969165,-1.131324804725922,-4.0,-118.36214800000002
798,26.968081045639693,-0.5078969131701978,27.137053984522147,-1.3728790394001624,-5.0,-147.95268500000003
799,27.001875633416184,-0.1241417636041398,27.170848572298638,-0.9499997615048518,-5.0,-147.95268500000003
800,27.035670221192674,0.3282315599792862,27.170848572298638,-0.9499997615048518,-4.0,-118.36214800000002
801,27.069464808969162,0.694409985787806,27.204643160075126,-0.14487180879853753,-4.0,-118.36214800000002
802,27.103259396745653,0.865151005038685,27.238437747851616,0.8054910052075707,-4.0,-118.36214800000002
803,27.137053984522144,0.845237371731398,27.272232335628107,1.565175875555846,-4.0,-118.36214800000002
804,27.170848572298635,0.7448244133201704,27.3060269234046,1.8725150322120654,-4.0,-118.36214800000002
805,27.204643160075126,0.6985879325324211,27.33982151118109,1.6708091121681883,-4.0,-118.36214800000002
806,27.238437747851616,0.7671505462998539,27.37361609895758,1.1168500038032703,-4.0,-118.36214800000002
807,27.272232335628107,0.8862416414046423,27.40741068673407,0.4691993979189914,-4.0,-118.36214800000002
808,27.3060269234046,0.8974508355554035,27.441205274510562,-0.06588173342049254,-4.0,-118.36214800000002
809,27.33982151118109,0.6438178344745928,27.474999862287053,-0.43244673950286955,-4.0,-118.36214800000002
810,27.37361609895758,0.07511484216815746,27.508794450063544,-0.711236672696172,-4.0,-118.36214800000002
811,27.40741068673407,-0.698136014169583,27.542589037840035,-1.013180205905427,-4.0,-118.36214800000002
812,27.441205274510562,-1.4353439197827829,27.576383625616526,-1.3578047061137928,-4.0,-118.36214800000002
813,27.474999862287053,-1.8698874213893746,27.610178213393016,-1.623081572026109,-4.0,-118.36214800000002
814,27.508794450063544,-1.8350764516260991,27.643972801169507,-1.6064581065426684,-4.0,-118.36214800000002
815,27.542589037840035,-1.344961542021619,27.677767388946,-1.1623192865282777,-4.0,-118.36214800000002
816,27.576383625616526,-0.5847737789973027,27.71156197672249,-0.325776802138558,-4.0,-118.36214800000002
817,27.610178213393016,0.18194113432078132,27.74535656449898,0.6648662327374373,-4.0,-118.36214800000002
818,27.643972801169507,0.7339654327945188,27.77915115227547,1.4715725701073061,-4.0,-118.36214800000002
819,27.677767388946,0.9753790899630641,27.812945740051962,1.826974037788738,-4.0,-118.36214800000002
820,27.71156197672249,0.9454938872028493,27.846740327828453,1.6667374795830916,-4.0,-118.36214800000002
821,27.74535656449898,0.7631320333159226,27.880534915604944,1.1435511150706807,-4.0,-118.36214800000002
822,27.77915115227547,0.5430323463130228,27.914329503381435,0.5198527949443976,-4.0,-118.36214800000002
823,27.812945740051962,0.3321966120394961,27.948124091157926,0.012371609619286857,-4.0,-118.36214800000002
824,27.846740327828453,0.10268747893533649,27.981918678934417,-0.313443155831533,-4.0,-118.36214800000002
825,27.880534915604944,-0.19555831070675708,28.015713266710907,-0.5387831081160925,-4.0,-118.36214800000002
826,27.914329503381435,-0.5602680277655,28.0495078544874,-0.7888455470456021,-4.0,-118.36214800000002
827,27.948124091157926,-0.8988574248076363,28.08330244226389,-1.105983271892555,-4.0,-118.36214800000002
828,27.981918678934417,-1.0605537990237623,28.11709703004038,-1.386727710064788,-4.0,-118.36214800000002
829,28.015713266710907,-0.9211159192221813,27.643972801169507,-1.6064581065426684,11.0,325.49590700000005
830,28.0495078544874,-0.4669090067382645,27.677767388946,-1.1623192865282777,11.0,325.49590700000005
831,28.08330244226389,0.1732714634573049,27.71156197672249,-0.325776802138558,11.0,325.49590700000005
832,28.11709703004038,0.7713175075292126,28.252275381146344,0.6598824928963973,-4.0,-118.36214800000002
833,28.15089161781687,1.1027053529208362,28.286069968922835,1.4903552615931355,-4.0,-118.36214800000002
834,28.184686205593362,1.0598767975255972,28.319864556699326,1.9058127180116504,-4.0,-118.36214800000002
835,28.218480793369853,0.7116475245723308,27.846740327828453,1.6667374795830916,11.0,325.49590700000005
836,28.252275381146344,0.2659165410244507,27.880534915604944,1.1435511150706807,11.0,325.49590700000005
837,28.286069968922835,-0.0503460544169819,27.914329503381435,0.5198527949443976,11.0,325.49590700000005
838,28.319864556699326,-0.12339681913502837,27.948124091157926,0.012371609619286857,11.0,325.49590700000005
839,28.353659144475817,-0.013736513880463864,27.981918678934417,-0.313443155831533,11.0,325.49590700000005
840,28.387453732252308,0.09523425258124778,28.52263208335827,-0.5361204400449929,-4.0,-118.36214800000002
841,28.4212483200288,0.03036268566626956,28.556426671134762,-0.8541894346867674,-4.0,-118.36214800000002
842,28.45504290780529,-0.24310190964159895,28.590221258911253,-1.2585295851038794,-4.0,-118.36214800000002
843,28.48883749558178,-0.5871637899971063,28.624015846687744,-1.6581142444538468,-4.0,-118.36214800000002
844,28.52263208335827,-0.7783256167622384,28.657810434464235,-1.8409198342597088,-4.0,-118.36214800000002
845,28.556426671134762,-0.6581081324910604,28.691605022240726,-1.5984635545120311,-4.0,-118.36214800000002
846,28.590221258911253,-0.24193954435063944,28.725399610017217,-0.8729781190900512,-4.0,-118.36214800000002
847,28.624015846687744,0.2879499186499205,28.759194197793708,0.16897448179465033,-4.0,-118.36214800000002
848,28.657810434464235,0.6956345544020626,28.7929887855702,1.1922868524622503,-4.0,-118.36214800000002
849,28.691605022240726,0.8277633280320348,28.82678337334669,1.8531194354286953,-4.0,-118.36214800000002
850,28.725399610017213,0.6826742346099668,28.860577961123177,1.9684432937289669,-4.0,-118.36214800000002
851,28.759194197793704,0.3788071467459348,28.894372548899668,1.5931318741665443,-4.0,-118.36214800000002
852,28.792988785570195,0.059886523928231586,28.92816713667616,0.962177388642842,-4.0,-118.36214800000002
853,28.826783373346686,-0.19165464236988405,28.96196172445265,0.34139440095163054,-4.0,-118.36214800000002
854,28.860577961123177,-0.38015113006436363,28.99575631222914,-0.11614445325968834,-4.0,-118.36214800000002
855,28.894372548899668,-0.5579093053536516,29.02955090000563,-0.4214870620307322,-4.0,-118.36214800000002
856,28.92816713667616,-0.7607550615728221,29.063345487782122,-0.6865729314406784,-4.0,-118.36214800000002
857,28.96196172445265,-0.9640040034566367,29.097140075558613,-0.9979633003702943,-4.0,-118.36214800000002
858,28.99575631222914,-1.083494545699935,29.130934663335104,-1.317416141062942,-4.0,-118.36214800000002
859,29.02955090000563,-1.0187957274502575,29.164729251111595,-1.4799596025976207,-4.0,-118.36214800000002
860,29.063345487782122,-0.7154199106781739,29.198523838888086,-1.2956217495478761,-4.0,-118.36214800000002
861,29.097140075558613,-0.21149885412264538,29.232318426664577,-0.6904629268329344,-4.0,-118.36214800000002
862,29.130934663335104,0.36320613339777985,29.266113014441068,0.208750197037818,-4.0,-118.36214800000002
863,29.164729251111595,0.844390911898792,29.29990760221756,1.1101087114099157,-4.0,-118.36214800000002
864,29.198523838888086,1.1171898985758042,29.33370218999405,1.6982784266833646,-4.0,-118.36214800000002
865,29.232318426664577,1.1728751878313242,29.36749677777054,1.7959589877013822,-4.0,-118.36214800000002
866,29.266113014441068,1.0966117853849746,29.40129136554703,1.443797394836446,-4.0,-118.36214800000002
867,29.29990760221756,0.9923815617274176,29.435085953323522,0.8517710521438457,-4.0,-118.36214800000002
868,29.33370218999405,0.9001889896119961,29.468880541100013,0.2599724218220258,-4.0,-118.36214800000002
869,29.36749677777054,0.7695426278679781,29.502675128876504,-0.19698548931874904,-4.0,-118.36214800000002
870,29.40129136554703,0.5111433510605773,29.536469716652995,-0.5361211059247223,-4.0,-118.36214800000002
871,29.435085953323522,0.0883993640708357,29.570264304429486,-0.8605727797322752,-4.0,-118.36214800000002
872,29.468880541100013,-0.42089036699257515,29.604058892205977,-1.2350798165816368,-4.0,-118.36214800000002
873,29.502675128876504,-0.8424793579015261,29.637853479982468,-1.5934195895488028,-4.0,-118.36214800000002
874,29.536469716652995,-0.9980255115319083,29.67164806775896,-1.7472993639114789,-4.0,-118.36214800000002
875,29.570264304429486,-0.814486942165245,29.70544265553545,-1.498595208649899,-4.0,-118.36214800000002
876,29.604058892205977,-0.37819314889622546,29.73923724331194,-0.7851374108060967,-4.0,-118.36214800000002
877,29.637853479982468,0.1055510102174236,29.77303183108843,0.23871147395681006,-4.0,-118.36214800000002
878,29.67164806775896,0.4243105888324159,29.806826418864922,1.2488384641569412,-4.0,-118.36214800000002
879,29.70544265553545,0.46971861222879074,29.840621006641413,1.9057202347159066,-4.0,-118.36214800000002
880,29.73923724331194,0.2776726240328822,29.874415594417904,2.0239215812866433,-4.0,-118.36214800000002
881,29.77303183108843,-0.020451960075619773,29.908210182194395,1.652627488118057,-4.0,-118.36214800000002
882,29.806826418864922,-0.29245264021505757,29.942004769970886,1.0211462177417983,-4.0,-118.36214800000002
883,29.840621006641413,-0.47930728226289915,29.975799357747377,0.3905204178511693,-4.0,-118.36214800000002
884,29.874415594417904,-0.6076149083309411,30.009593945523868,-0.09069127459172607,-4.0,-118.36214800000002
885,29.908210182194395,-0.7459749998058794,30.04338853330036,-0.437429665490907,-4.0,-118.36214800000002
886,29.942004769970886,-0.940863159358596,30.07718312107685,-0.7621010796091471,-4.0,-118.36214800000002
887,29.975799357747377,-1.168549236140701,30.11097770885334,-1.1445565008279108,-4.0,-118.36214800000002
888,30.009593945523868,-1.3258409938968965,30.14477229662983,-1.5313354791293772,-4.0,-118.36214800000002
889,30.04338853330036,-1.2680132415874545,30.178566884406322,-1.7371190986625518,-4.0,-118.36214800000002
890,30.07718312107685,-0.884642628192209,30.212361472182813,-1.5536612426684682,-4.0,-118.36214800000002
891,30.11097770885334,-0.17991181675028292,30.246156059959304,-0.898415612591165,-4.0,-118.36214800000002
892,30.14477229662983,0.6921151634149619,29.77303183108843,0.23871147395681006,11.0,325.49590700000005
893,30.178566884406322,1.4729200928492656,29.806826418864922,1.2488384641569412,11.0,325.49590700000005
894,30.212361472182813,1.915352229694079,29.840621006641413,1.9057202347159066,11.0,325.49590700000005
895,30.246156059959304,1.9082604181645564,29.874415594417904,2.0239215812866433,11.0,325.49590700000005
896,30.279950647735795,1.5311805939377066,29.908210182194395,1.652627488118057,11.0,325.49590700000005
897,30.313745235512286,0.9988546184238103,29.942004769970886,1.0211462177417983,11.0,325.49590700000005
898,30.347539823288773,0.5293093671895174,29.975799357747373,0.3905204178512356,11.0,325.49590700000005
899,30.381334411065264,0.22386922255971964,30.009593945523864,-0.09069127459167553,11.0,325.49590700000005
900,30.415128998841755,0.037788268495384,30.043388533300355,-0.4374296654908705,11.0,325.49590700000005
901,30.448923586618246,-0.14725909812437418,30.077183121076846,-0.762101079609113,11.0,325.49590700000005
902,30.482718174394737,-0.40946373441026096,30.110977708853337,-1.1445565008278706,11.0,325.49590700000005
903,30.516512762171228,-0.7149967670355509,30.144772296629828,-1.5313354791293365,11.0,325.49590700000005
904,30.55030734994772,-0.93317761236315,30.17856688440632,-1.73711909866253,11.0,325.49590700000005
905,30.58410193772421,-0.9215882388624177,30.21236147218281,-1.5536612426684875,11.0,325.49590700000005
906,30.6178965255007,-0.6227386269233115,30.2461560599593,-0.8984156125912338,11.0,325.49590700000005
907,30.65169111327719,-0.11304591150050984,30.27995064773579,0.09635325008112838,11.0,325.49590700000005
908,30.685485701053683,0.4240173445940153,30.313745235512283,1.1196731118957184,11.0,325.49590700000005
909,30.719280288830173,0.7855032586723653,30.347539823288773,1.8288777139483277,11.0,325.49590700000005
910,30.753074876606664,0.8484407134706785,30.347539823288773,1.8288777139483277,12.0,355.08644400000003
911,30.786869464383155,0.6256847173756351,30.381334411065264,2.019284838771234,12.0,355.08644400000003
912,30.820664052159646,0.24737189847177993,30.448923586618246,1.1129260485448174,11.0,325.49590700000005
913,30.854458639936137,-0.11989544496810595,30.482718174394737,0.4702290329471659,11.0,325.49590700000005
914,30.888253227712628,-0.36656708032358976,30.516512762171228,-0.06134563122751153,11.0,325.49590700000005
915,30.92204781548912,-0.4876948957084848,30.55030734994772,-0.47681730232858227,11.0,325.49590700000005
916,30.95584240326561,-0.5545549846743296,30.58410193772421,-0.8637888308517871,11.0,325.49590700000005
917,30.9896369910421,-0.6333785298174895,30.58410193772421,-0.8637888308517871,12.0,355.08644400000003
918,31.02343157881859,-0.7158738827824588,30.6178965255007,-1.2829086257817552,12.0,355.08644400000003
919,31.057226166595083,-0.7194329021465837,30.685485701053683,-1.853891911253912,11.0,325.49590700000005
920,31.091020754371574,-0.5581356299742471,30.719280288830173,-1.6265219506277768,11.0,325.49590700000005
921,31.124815342148064,-0.22535841886057503,30.753074876606664,-0.9199272271811646,11.0,325.49590700000005
922,31.158609929924555,0.1815459145925927,30.786869464383155,0.12359512967551621,11.0,325.49590700000005
923,31.192404517701046,0.515461751356271,30.820664052159646,1.1833622144229075,11.0,325.49590700000005
924,31.226199105477537,0.6688649818064377,30.854458639936137,1.906739918541459,11.0,325.49590700000005
925,31.259993693254028,0.6294742024969968,30.854458639936137,1.906739918541459,12.0,355.08644400000003
926,31.29378828103052,0.4664976706587854,30.888253227712628,2.081929915869323,12.0,355.08644400000003
927,31.32758286880701,0.2691499060043795,30.95584240326561,1.0822243318634415,11.0,325.49590700000005
928,31.3613774565835,0.09076306878770543,30.95584240326561,1.0822243318634415,12.0,355.08644400000003
929,31.39517204435999,-0.06312481484420446,30.9896369910421,0.40866042441821593,12.0,355.08644400000003
930,31.428966632136483,-0.2073879564063554,31.02343157881859,-0.10665880230010381,12.0,355.08644400000003
931,31.462761219912974,-0.3471557036235074,31.057226166595083,-0.4550708911473484,12.0,355.08644400000003
932,31.496555807689465,-0.47368752977772777,31.091020754371574,-0.7551591354573469,12.0,355.08644400000003
933,31.530350395465955,-0.5789363867753248,31.124815342148064,-1.1244081640038108,12.0,355.08644400000003
934,31.564144983242446,-0.659049033245399,31.158609929924555,-1.5553102568248978,12.0,355.08644400000003
935,31.597939571018937,-0.695527615727746,31.226199105477537,-1.8585723058849126,11.0,325.49590700000005
936,31.631734158795428,-0.6404900117460576,31.259993693254028,-1.3264237181218381,11.0,325.49590700000005
937,31.66552874657192,-0.4398832300708625,31.29378828103052,-0.33212219203949256,11.0,325.49590700000005
938,31.69932333434841,-0.08829769528047385,31.29378828103052,-0.33212219203949256,12.0,355.08644400000003
939,31.7331179221249,0.3355449223191098,31.32758286880701,0.8511002892964754,12.0,355.08644400000003
940,31.766912509901392,0.6976635388088603,31.3613774565835,1.8413656223926531,12.0,355.08644400000003
941,31.800707097677883,0.891419385069159,31.428966632136483,2.2301674693252638,11.0,325.49590700000005
942,31.834501685454374,0.9115361641350085,32.98351766985506,0.006154143769066254,-34.0,-1006.0782580000001
943,31.868296273230865,0.8568232367691426,33.01731225763155,-0.011590703640050022,-34.0,-1006.0782580000001
944,31.902090861007355,0.8501144228631385,33.05110684540804,0.020773234968428797,-34.0,-1006.0782580000001
945,31.935885448783846,0.928799124897247,33.084901433184534,0.06699145913358154,-34.0,-1006.0782580000001
946,31.969680036560337,0.9911582009446813,33.118696020961025,0.04439989860252283,-34.0,-1006.0782580000001
947,32.003474624336825,0.8528747204976039,33.152490608737516,-0.14194709855727758,-34.0,-1006.0782580000001
948,32.037269212113316,0.3862335563644828,33.18628519651401,-0.5375440169197175,-34.0,-1006.0782580000001
949,32.07106379988981,-0.3569669478210576,33.2200797842905,-1.0798070218251499,-34.0,-1006.0782580000001
950,32.1048583876663,-1.1335237324931,33.25387437206699,-1.584056580687704,-34.0,-1006.0782580000001
951,32.13865297544279,-1.6229772105507319,33.28766895984348,-1.8008683523251847,-34.0,-1006.0782580000001
952,32.17244756321928,-1.5958806031920303,33.32146354761997,-1.532515861929614,-34.0,-1006.0782580000001
953,32.20624215099577,-1.0352811322923356,33.35525813539646,-0.7527628562713077,-34.0,-1006.0782580000001
954,32.24003673877226,-0.14753622356355703,33.38905272317295,0.34337450530682284,-34.0,-1006.0782580000001
955,32.27383132654875,0.7360175385475629,33.65940942538488,-0.23658485741370008,-41.0,-1213.2120170000003
956,32.30762591432524,1.3119139655891157,33.69320401316137,-0.4633937588778761,-41.0,-1213.2120170000003
957,32.341420502101734,1.434879266569049,33.69320401316137,-0.4633937588778761,-40.0,-1183.6214800000002
958,32.375215089878225,1.160646181266896,34.03114989092627,1.8918731917573433,-49.0,-1449.9363130000002
959,32.409009677654716,0.6822702437243091,33.76079318871435,-1.2460743787529287,-40.0,-1183.6214800000002
960,32.44280426543121,0.20329297863195708,33.79458777649084,-1.6556047657138173,-40.0,-1183.6214800000002
961,32.4765988532077,-0.17082065582305064,34.132533654255745,0.17351507867581606,-49.0,-1449.9363130000002
962,32.51039344098419,-0.459006481437559,34.166328242032236,-0.19603013687363827,-49.0,-1449.9363130000002
963,32.54418802876068,-0.7447261020138561,34.20012282980873,-0.43517969487868413,-49.0,-1449.9363130000002
964,32.57798261653717,-1.0819104459031261,34.23391741758522,-0.6951969617754115,-49.0,-1449.9363130000002
965,32.61177720431366,-1.4331885731926437,34.26771200536171,-1.072092361240672,-49.0,-1449.9363130000002
966,32.64557179209015,-1.6785505740853675,34.3015065931382,-1.5061366665179372,-49.0,-1449.9363130000002
967,32.67936637986664,-1.6870149423482808,34.33530118091469,-1.7882107185364509,-49.0,-1449.9363130000002
968,32.713160967643134,-1.4068172399040082,33.01731225763155,-0.011590703640050022,-9.0,-266.314833
969,32.746955555419625,-0.9161922227874412,30.753074876606664,-0.9199272271811646,59.0,1745.8416830000003
970,32.780750143196116,-0.3961037949322953,30.786869464383155,0.12359512967551621,59.0,1745.8416830000003
971,32.81454473097261,-0.034587354350163566,33.118696020961025,0.04439989860252283,-9.0,-266.314833
972,32.8483393187491,0.07989743799921874,33.152490608737516,-0.14194709855727758,-9.0,-266.314833
973,32.88213390652559,0.00933999611412012,33.18628519651401,-0.5375440169197175,-9.0,-266.314833
974,32.91592849430208,-0.06944344524809129,33.2200797842905,-1.0798070218251499,-9.0,-266.314833
975,32.94972308207857,0.03448305910841548,33.25387437206699,-1.584056580687704,-9.0,-266.314833
976,32.98351766985506,0.41692392262246547,33.28766895984348,-1.8008683523251847,-9.0,-266.314833
977,33.01731225763155,1.020997966233417,33.32146354761997,-1.532515861929614,-9.0,-266.314833
978,33.05110684540804,1.6637849656077561,33.38905272317295,0.34337450530682284,-10.0,-295.90537000000006
979,33.084901433184534,2.1311674507154277,33.42284731094944,1.4043483120970788,-10.0,-295.90537000000006
980,33.118696020961025,2.2830194803987682,33.456641898725934,2.0794321270178755,-10.0,-295.90537000000006
981,33.152490608737516,2.107987668429803,33.456641898725934,2.0794321270178755,-9.0,-266.314833
982,33.18628519651401,1.7054635503640658,33.524231074278916,1.7792366760714509,-10.0,-295.90537000000006
983,33.2200797842905,1.217394017165588,33.55802566205541,1.1128975636897283,-10.0,-295.90537000000006
984,33.25387437206699,0.7527585435456579,33.5918202498319,0.47209867525392185,-10.0,-295.90537000000006
985,33.28766895984348,0.34200699350024605,33.62561483760839,0.02691698353965324,-10.0,-295.90537000000006
986,33.32146354761997,-0.05941849755038568,33.65940942538488,-0.23658485741370008,-10.0,-295.90537000000006
987,33.35525813539646,-0.5227259208716072,33.65940942538488,-0.23658485741370008,-9.0,-266.314833
988,33.38905272317295,-1.0787241863524903,33.69320401316137,-0.4633937588778761,-9.0,-266.314833
989,33.42284731094944,-1.6686823605011083,33.76079318871435,-1.2460743787529287,-10.0,-295.90537000000006
990,33.456641898725934,-2.1440621856838313,33.79458777649084,-1.6556047657138173,-10.0,-295.90537000000006
991,33.490436486502425,-2.32532709848715,33.828382364267334,-1.7735486387892034,-10.0,-295.90537000000006
992,33.524231074278916,-2.0963887304816073,33.862176952043825,-1.4096400396588042,-10.0,-295.90537000000006
993,33.55802566205541,-1.4801065010210068,33.895971539820316,-0.5712140774612853,-10.0,-295.90537000000006
994,33.5918202498319,-0.6422447608819533,33.92976612759681,0.504530199498889,-10.0,-295.90537000000006
995,33.62561483760839,0.18267473380096963,33.9635607153733,1.4510508967149478,-10.0,-295.90537000000006
996,33.65940942538488,0.7946643156593634,33.99735530314979,1.9515829230351491,-10.0,-295.90537000000006
997,33.69320401316137,1.0965054962111853,34.03114989092628,1.8918731917573306,-10.0,-295.90537000000006
998,33.72699860093786,1.0989228847254497,34.06494447870277,1.3976184876323965,-10.0,-295.90537000000006
999,33.76079318871435,0.8825165164485784,34.09873906647926,0.7401068688360977,-10.0,-295.90537000000006
1000,33.79458777649084,0.5517094079550879,34.13253365425575,0.1735150786756969,-10.0,-295.90537000000006
1001,33.828382364267334,0.19963539158840501,34.16632824203224,-0.19603013687371595,-10.0,-295.90537000000006
1002,33.862176952043825,-0.11365687294454445,34.200122829808734,-0.4351796948787344,-10.0,-295.90537000000006
1003,33.895971539820316,-0.36881525739343435,34.233917417585225,-0.6951969617754662,-10.0,-295.90537000000006
1004,33.92976612759681,-0.5764976023884144,34.267712005361716,-1.0720923612407514,-10.0,-295.90537000000006
1005,33.9635607153733,-0.748340394048983,34.30150659313821,-1.5061366665180285,-10.0,-295.90537000000006
1006,33.99735530314979,-0.8624413619854131,34.3353011809147,-1.7882107185365101,-10.0,-295.90537000000006
1007,34.03114989092628,-0.8494935231190274,34.36909576869119,-1.6762013135824099,-10.0,-295.90537000000006
1008,34.06494447870277,-0.6230327626564057,34.40289035646768,-1.0548814418627466,-10.0,-295.90537000000006
1009,34.09873906647926,-0.14815545290192722,34.43668494424417,-0.039064446949051285,-10.0,-295.90537000000006
1010,34.13253365425575,0.4962831122869993,34.47047953202066,1.052272617717396,-10.0,-295.90537000000006
1011,34.16632824203224,1.1180736861539673,34.50427411979715,1.8449656641561458,-10.0,-295.90537000000006
1012,34.200122829808734,1.4926040656203294,34.53806870757364,2.0957254641287673,-10.0,-295.90537000000006
1013,34.233917417585225,1.481102058599568,34.571863295350134,1.8031870381767643,-10.0,-295.90537000000006
1014,34.267712005361716,1.1095017633699578,34.605657883126625,1.1800606347513511,-10.0,-295.90537000000006
1015,34.30150659313821,0.5533941028628043,34.639452470903116,0.5114635242074168,-10.0,-295.90537000000006
1016,34.3353011809147,0.036380745758427105,34.67324705867961,-0.007205382744399046,-10.0,-295.90537000000006
1017,34.36909576869119,-0.29282056870246537,34.67324705867961,-0.007205382744399046,-9.0,-266.314833
1018,34.40289035646768,-0.4257572090721796,34.7070416464561,-0.3543638327728363,-9.0,-266.314833
1019,34.43668494424417,-0.4646295410804646,34.74083623423259,-0.645112817932098,-9.0,-266.314833
1020,34.470479532020654,-0.5264600182903937,34.77463082200907,-1.0064186411736455,-9.0,-266.314833
1021,34.504274119797145,-0.6526011109477866,34.80842540978556,-1.4499744464916675,-9.0,-266.314833
1022,34.538068707573636,-0.7843183591240457,34.842219997562054,-1.827153140788475,-9.0,-266.314833
1023,34.57186329535013,-0.8124492728746582,34.876014585338545,-1.8993353912902073,-9.0,-266.314833
1024,34.60565788312662,-0.6579714749819028,34.909809173115036,-1.4849784121044067,-9.0,-266.314833
1025,34.63945247090311,-0.3271115382383444,34.94360376089153,-0.5936104612450063,-9.0,-266.314833
1026,34.6732470586796,0.09046373506538982,34.97739834866802,0.5407312318984171,-9.0,-266.314833
1027,34.70704164645609,0.47359615401956323,35.01119293644451,1.5552218614416262,-9.0,-266.314833
1028,34.74083623423258,0.7358203744308154,35.044987524221,2.130973289695785,-9.0,-266.314833
1029,34.77463082200907,0.8622333442118564,35.07878211199749,2.141576906479309,-9.0,-266.314833
1030,34.80842540978556,0.892851815736486,35.11257669977398,1.6927875824351024,-9.0,-266.314833
1031,34.842219997562054,0.8669239291631724,35.14637128755047,1.0380179083910148,-9.0,-266.314833
1032,34.876014585338545,0.7744518878402609,35.18016587532696,0.4282655513564353,-9.0,-266.314833
1033,34.909809173115036,0.5580930276031892,35.213960463103454,-0.012641012152946824,-9.0,-266.314833
1034,34.94360376089153,0.16937994533036857,35.247755050879945,-0.3201361349511909,-9.0,-266.314833
1035,34.97739834866802,-0.36181943971188474,35.281549638656436,-0.6198030253657808,-9.0,-266.314833
1036,35.01119293644451,-0.9013873142006517,35.31534422643293,-1.0063846813074484,-9.0,-266.314833
1037,35.044987524221,-1.2591609868591545,35.34913881420942,-1.4473616824069513,-9.0,-266.314833
1038,35.07878211199749,-1.2899135276825409,35.38293340198591,-1.7723618931382195,-9.0,-266.314833
1039,35.11257669977398,-0.9831387004648829,35.4167279897624,-1.7605333535992287,-9.0,-266.314833
1040,35.14637128755047,-0.47788494561613487,35.45052257753889,-1.2791876898541188,-9.0,-266.314833
1041,35.18016587532696,0.011572328483417898,35.18016587532696,0.4282655513564353,0.0,0.0
1042,35.213960463103454,0.3097270346878264,35.213960463103454,-0.012641012152946824,0.0,0.0
1043,35.247755050879945,0.3597879126794536,35.247755050879945,-0.3201361349511909,0.0,0.0
1044,35.281549638656436,0.22921475415293566,35.281549638656436,-0.6198030253657808,0.0,0.0
1045,35.31534422643293,0.054364418869900365,35.31534422643293,-1.0063846813074484,0.0,0.0
1046,35.34913881420942,-0.033960779167413004,35.34913881420942,-1.4473616824069513,0.0,0.0
1047,35.38293340198591,0.03189506079716744,35.38293340198591,-1.7723618931382195,0.0,0.0
1048,35.4167279897624,0.2320393831948054,35.4167279897624,-1.7605333535992287,0.0,0.0
1049,35.45052257753889,0.4693990545179829,35.45052257753889,-1.2791876898541188,0.0,0.0
1050,35.48431716531538,0.6109606759849212,35.48431716531538,-0.39069596949234964,0.0,0.0
1051,35.51811175309187,0.5506473214382093,35.51811175309187,0.6439401483894506,0.0,0.0
1052,35.55190634086836,0.2704904839603746,35.55190634086836,1.4774817347988767,0.0,0.0
1053,35.585700928644854,-0.13566792725530805,35.585700928644854,1.8445693917304904,0.0,0.0
1054,35.619495516421345,-0.5004899151296551,35.619495516421345,1.687385522150754,0.0,0.0
1055,35.653290104197836,-0.6700756722892299,35.653290104197836,1.165865484667736,0.0,0.0
1056,35.68708469197433,-0.5880473475121224,35.68708469197433,0.551304255207709,0.0,0.0
1057,35.72087927975082,-0.32159517037973473,35.72087927975082,0.07178158981914673,0.0,0.0
1058,35.75467386752731,-0.01340646942411231,35.75467386752731,-0.198840833707983,0.0,0.0
1059,35.7884684553038,0.2057584934807281,35.7884684553038,-0.34903790473748325,0.0,0.0
1060,35.82226304308029,0.2876955838412105,35.82226304308029,-0.5387013158893368,0.0,0.0
1061,35.85605763085678,0.2815612088546977,35.85605763085678,-0.8687309902030608,0.0,0.0
1062,35.88985221863327,0.2873660471414133,35.88985221863327,-1.2904323268571019,0.0,0.0
1063,35.923646806409764,0.37472105271265166,35.923646806409764,-1.610363713115246,0.0,0.0
1064,35.957441394186255,0.5176677693544773,35.957441394186255,-1.59249312888536,0.0,0.0
1065,35.991235981962745,0.5964358117634887,35.991235981962745,-1.1025866933797512,0.0,0.0
1066,36.025030569739236,0.4762023668615063,36.025030569739236,-0.21029892215754264,0.0,0.0
1067,36.05882515751573,0.11271368838561244,36.05882515751573,0.8169764687126705,0.0,0.0
1068,36.09261974529222,-0.39312421836110295,36.09261974529222,1.6328134229180933,0.0,0.0
1069,36.12641433306871,-0.8367487724954176,36.12641433306871,1.97799437662029,0.0,0.0
1070,36.1602089208452,-1.023777514829547,36.1602089208452,1.798624282298081,0.0,0.0
1071,36.19400350862169,-0.8810941917328337,36.19400350862169,1.2508923331888187,0.0,0.0
1072,36.22779809639818,-0.49428672250437666,36.22779809639818,0.5976330593375001,0.0,0.0
1073,36.26159268417467,-0.05332659797233784,36.26159268417467,0.064165780005404,0.0,0.0
1074,36.295387271951164,0.25346776663910886,36.26159268417467,0.064165780005404,1.0,29.590537000000005
1075,36.329181859727655,0.3334301818743685,36.295387271951164,-0.2626612625150204,1.0,29.590537000000005
1076,36.362976447504145,0.2247199098026468,36.329181859727655,-0.44187825998945524,1.0,29.590537000000005
1077,36.396771035280636,0.0622361588457841,36.362976447504145,-0.5998014780286853,1.0,29.590537000000005
1078,36.43056562305713,-0.0038706874260230387,36.396771035280636,-0.82039855396764,1.0,29.590537000000005
1079,36.46436021083362,0.1032503499922312,36.43056562305713,-1.07257911932291,1.0,29.590537000000005
1080,36.49815479861011,0.33625900956866606,36.46436021083362,-1.2177335016586632,1.0,29.590537000000005
1081,36.5319493863866,0.5422460479932867,36.49815479861011,-1.0938712155621322,1.0,29.590537000000005
1082,36.56574397416309,0.5489368019422725,36.5319493863866,-0.6278210311602189,1.0,29.590537000000005
1083,36.59953856193958,0.27406589532370407,36.56574397416309,0.09273682952611666,1.0,29.590537000000005
1084,36.63333314971607,-0.20821803861870358,36.59953856193958,0.8368200545806356,1.0,29.590537000000005
1085,36.667127737492564,-0.6895900310053673,36.63333314971607,1.3348973522718877,1.0,29.590537000000005
1086,36.700922325269055,-0.9315432437687808,36.667127737492564,1.4127632561968488,1.0,29.590537000000005
1087,36.734716913045546,-0.7943812061304384,36.700922325269055,1.0754630630782063,1.0,29.590537000000005
1088,36.76851150082204,-0.3180139786798437,36.734716913045546,0.4931398458151321,1.0,29.590537000000005
1089,36.80230608859853,0.29377439857778814,36.76851150082204,-0.0980629886188475,1.0,29.590537000000005
1090,36.83610067637502,0.7812328265427647,36.80230608859853,-0.5179111449927751,1.0,29.590537000000005
1091,36.86989526415151,0.9702214193080997,36.83610067637502,-0.7173791172529264,1.0,29.590537000000005
1092,36.903689851928,0.8633726169144629,36.86989526415151,-0.7710841670913304,1.0,29.590537000000005
1093,36.93748443970449,0.6204003394426093,36.903689851928,-0.8000539305966536,1.0,29.590537000000005
1094,36.97127902748098,0.43529049629956734,36.93748443970449,-0.875404362864021,1.0,29.590537000000005
1095,37.00507361525747,0.3911359144423637,36.97127902748098,-0.9612603056347874,1.0,29.590537000000005
1096,37.038868203033964,0.39547248972664906,37.00507361525747,-0.9319044798597114,1.0,29.590537000000005
1097,37.072662790810455,0.2463195033649573,37.038868203033964,-0.6556239514198021,1.0,29.590537000000005
1098,37.106457378586946,-0.21202082426573554,37.072662790810455,-0.09651771297525366,1.0,29.590537000000005
1099,37.14025196636344,-0.9478670292502811,37.106457378586946,0.6310175684551292,1.0,29.590537000000005
1100,37.17404655413993,-1.7139655746403821,37.14025196636344,1.297053779546632,1.0,29.590537000000005
1101,37.20784114191642,-2.160448663372816,37.17404655413993,1.6669097204730847,1.0,29.590537000000005
1102,37.24163572969291,-2.0272174846595004,37.20784114191642,1.622655797579964,1.0,29.590537000000005
1103,37.2754303174694,-1.2995012942909363,37.24163572969291,1.2202557247476467,1.0,29.590537000000005
1104,37.30922490524589,-0.22861947769179142,37.24163572969291,1.2202557247476467,2.0,59.18107400000001
1105,37.34301949302238,0.7959290302927243,37.2754303174694,0.6488079511709461,2.0,59.18107400000001
1106,37.37681408079887,1.4424676694007883,37.34301949302238,-0.2377531064055353,1.0,29.590537000000005
1107,37.410608668575364,1.58326562501005,37.37681408079887,-0.43401007713412215,1.0,29.590537000000005
1108,37.444403256351855,1.3158068640949325,37.410608668575364,-0.5703138080671971,1.0,29.590537000000005
1109,37.478197844128346,0.8682959107386962,37.410608668575364,-0.5703138080671971,2.0,59.18107400000001
1110,37.51199243190484,0.46164310819963766,37.444403256351855,-0.7508289935639872,2.0,59.18107400000001
1111,37.54578701968133,0.20898170692430743,37.478197844128346,-0.9923761995078221,2.0,59.18107400000001
1112,37.57958160745782,0.09610392722325349,37.51199243190484,-1.1951158608382046,2.0,59.18107400000001
1113,37.61337619523431,0.032027541222317185,37.57958160745782,-0.8634123128581552,1.0,29.590537000000005
1114,37.6471707830108,-0.07791501736328658,37.61337619523431,-0.21678542307112306,1.0,29.590537000000005
1115,37.68096537078729,-0.2814454415071253,37.6471707830108,0.5680201300002565,1.0,29.590537000000005
1116,37.71475995856378,-0.5636886641468669,37.6471707830108,0.5680201300002565,2.0,59.18107400000001
1117,37.748554546340266,-0.853484255977991,37.680965370787284,1.2180319084113738,2.0,59.18107400000001
1118,37.78234913411676,-1.0423064555724533,37.714759958563775,1.4989181789660366,2.0,59.18107400000001
1119,37.81614372189325,-1.020761156912771,37.748554546340266,1.3346332199792434,2.0,59.18107400000001
1120,37.84993830966974,-0.731957309791413,37.78234913411676,0.8408868780343536,2.0,59.18107400000001
1121,37.88373289744623,-0.2161315925715055,37.81614372189325,0.25336861509612396,2.0,59.18107400000001
1122,37.91752748522272,0.390483397842451,37.88373289744623,-0.4334369026604206,1.0,29.590537000000005
1123,37.95132207299921,0.91399105294219,37.91752748522272,-0.49511234789261377,1.0,29.590537000000005
1124,37.9851166607757,1.225807311409927,37.91752748522272,-0.49511234789261377,2.0,59.18107400000001
1125,38.01891124855219,1.2974856703735231,37.95132207299921,-0.5461922408846719,2.0,59.18107400000001
1126,38.052705836328684,1.195693425881863,37.9851166607757,-0.7225137158459836,2.0,59.18107400000001
1127,38.086500424105175,1.0256879185110794,38.01891124855219,-1.0343228491387273,2.0,59.18107400000001
1128,38.120295011881666,0.86020901858378,38.052705836328684,-1.3378576129412312,2.0,59.18107400000001
1129,38.15408959965816,0.6964027352489938,38.086500424105175,-1.405160000839703,2.0,59.18107400000001
1130,38.18788418743465,0.46743408518176277,38.120295011881666,-1.058905427053876,2.0,59.18107400000001
1131,38.22167877521114,0.10281105879249712,38.15408959965816,-0.2965507674207289,2.0,59.18107400000001
1132,38.25547336298763,-0.4014814347134268,38.18788418743465,0.6742601680126327,2.0,59.18107400000001
1133,38.28926795076412,-0.9508696408940398,38.22167877521114,1.5203738596588294,2.0,59.18107400000001
1134,38.32306253854061,-1.382884345907563,38.25547336298763,1.9461767194991517,2.0,59.18107400000001
1135,38.3568571263171,-1.547346021631596,38.28926795076412,1.841000276381147,2.0,59.18107400000001
1136,38.39065171409359,-1.3925940459837252,38.32306253854061,1.3239813639086597,2.0,59.18107400000001
1137,38.424446301870084,-1.006098887476954,38.3568571263171,0.6632235814317549,2.0,59.18107400000001
1138,38.458240889646575,-0.5770695393711849,38.39065171409359,0.122433659709259,2.0,59.18107400000001
1139,38.492035477423066,-0.2920087333734422,38.424446301870084,-0.17302434366102093,2.0,59.18107400000001
1140,38.52583006519956,-0.2220377305375156,38.458240889646575,-0.27742524035757754,2.0,59.18107400000001
1141,38.55962465297605,-0.27855136215283643,38.492035477423066,-0.35821997927878885,2.0,59.18107400000001
1142,38.59341924075254,-0.275995849476854,38.52583006519956,-0.5672463961006046,2.0,59.18107400000001
1143,38.62721382852903,-0.06544025303183759,38.55962465297605,-0.9265307564571791,2.0,59.18107400000001
1144,38.66100841630552,0.3511746648027127,38.59341924075254,-1.295501003356953,2.0,59.18107400000001
1145,38.69480300408201,0.8040132192056665,38.62721382852903,-1.4417020006539794,2.0,59.18107400000001
1146,38.7285975918585,1.0478324166364197,38.66100841630552,-1.179002533214087,2.0,59.18107400000001
1147,38.76239217963499,0.9071719237573289,38.69480300408201,-0.49480563629060914,2.0,59.18107400000001
1148,38.796186767411484,0.3870532138404948,38.7285975918585,0.41297395631166,2.0,59.18107400000001
1149,38.829981355187975,-0.3152451687089493,38.76239217963499,1.220049745951366,2.0,59.18107400000001
1150,38.863775942964466,-0.9017944684545769,39.1003380573999,-1.2605164222430019,-7.0,-207.13375900000003
1151,38.89757053074096,-1.115722711546447,39.13413264517639,-1.643430116688835,-7.0,-207.13375900000003
1152,38.93136511851745,-0.8590954961267334,39.167927232952884,-1.7237017700893196,-7.0,-207.13375900000003
1153,38.96515970629394,-0.23300328781588975,39.201721820729375,-1.3281107614094776,-7.0,-207.13375900000003
1154,38.99895429407043,0.5137236242827266,38.93136511851745,0.032334971759610885,2.0,59.18107400000001
1155,39.03274888184692,1.099940338991863,38.96515970629394,-0.2359119304572093,2.0,59.18107400000001
1156,39.06654346962341,1.3371405046596232,38.99895429407043,-0.3655919707557975,2.0,59.18107400000001
1157,39.1003380573999,1.2063720369004782,39.03274888184692,-0.5207316265597318,2.0,59.18107400000001
1158,39.13413264517639,0.8524175275092649,39.06654346962341,-0.8259656784382318,2.0,59.18107400000001
1159,39.167927232952884,0.497859792547326,39.1003380573999,-1.2605164222430019,2.0,59.18107400000001
1160,39.201721820729375,0.31740277524164295,39.43828393516481,0.8071776045753906,-7.0,-207.13375900000003
1161,39.235516408505866,0.33785875365945245,39.4720785229413,0.2796815554746386,-7.0,-207.13375900000003
1162,39.26931099628236,0.42453504418994426,39.50587311071779,-0.04482946486379305,-7.0,-207.13375900000003
1163,39.30310558405885,0.3704905652969021,39.539667698494284,-0.22615790222170593,-7.0,-207.13375900000003
1164,39.33690017183534,0.03994310822765298,39.573462286270775,-0.4174986644118049,-7.0,-207.13375900000003
1165,39.37069475961183,-0.5247365002266665,39.607256874047266,-0.7379470322931566,-7.0,-207.13375900000003
1166,39.40448934738832,-1.1058289609529008,39.64105146182376,-1.1685933533115347,-7.0,-207.13375900000003
1167,39.43828393516481,-1.4270731496578426,39.67484604960025,-1.536267724271347,-7.0,-207.13375900000003
1168,39.4720785229413,-1.3148063601587168,39.70864063737674,-1.6005058816285997,-7.0,-207.13375900000003
1169,39.50587311071779,-0.8042191088951159,39.74243522515323,-1.1987622182361533,-7.0,-207.13375900000003
1170,39.539667698494284,-0.1240556121451628,39.77622981292972,-0.36489327795311255,-7.0,-207.13375900000003
1171,39.573462286270775,0.43118234496209146,39.81002440070621,0.656055608105157,-7.0,-207.13375900000003
1172,39.607256874047266,0.6612463256709035,39.8438189884827,1.5150145636504333,-7.0,-207.13375900000003
1173,39.64105146182376,0.5548310772772793,39.87761357625919,1.9296384866210687,-7.0,-207.13375900000003
1174,39.67484604960025,0.26852643487674144,39.911408164035684,1.8179229565875237,-7.0,-207.13375900000003
1175,39.70864063737674,0.01435652931935487,39.945202751812175,1.3176410050990135,-7.0,-207.13375900000003
