frame_idx,t_rppg,rppg_n,t_gt_pair,ppg_n_pair,lag_samples,lag_frames
0,0.0,0.09312825561150642,0.27011176211797333,0.20891698746989676,-8.0,-236.93896
1,0.033763970264746666,0.16410868746287358,0.30387573238272,0.2825733580916735,-8.0,-236.93896
2,0.06752794052949333,0.18690980133947102,0.3376397026474667,0.35634796722130657,-8.0,-236.93896
3,0.10129191079423999,0.19976516604751984,0.3714036729122133,0.3327179197524315,-8.0,-236.93896
4,0.13505588105898667,0.3276053201299836,0.40516764317695997,0.18222737725176746,-8.0,-236.93896
5,0.16881985132373334,0.6951395639067058,0.43893161344170667,-0.05921659425408463,-8.0,-236.93896
6,0.20258382158847998,1.320200095692658,0.4726955837064533,-0.32790380643026773,-8.0,-236.93896
7,0.23634779185322666,2.071934841244954,0.5064595539712,-0.5764977561587589,-8.0,-236.93896
8,0.27011176211797333,2.724116057585679,0.5402235242359467,-0.7965952202780746,-8.0,-236.93896
9,0.30387573238272,3.063269246469819,0.5739874945006933,-1.006820083121321,-8.0,-236.93896
10,0.3376397026474667,2.981932999767951,0.6077514647654401,-1.215606042380384,-8.0,-236.93896
11,0.3714036729122133,2.5112701370051753,0.6415154350301866,-1.3850090289732302,-8.0,-236.93896
12,0.40516764317695997,1.7913697133544415,0.6752794052949334,-1.424418765509981,-8.0,-236.93896
13,0.43893161344170667,1.005423277238571,0.70904337555968,-1.2274006162559967,-8.0,-236.93896
14,0.4726955837064533,0.3076289933515015,0.7428073458244266,-0.7374537259504405,-8.0,-236.93896
15,0.5064595539712,-0.23095792491648395,0.7765713160891734,-0.004864381373737444,-8.0,-236.93896
16,0.5402235242359467,-0.638454206600152,0.8103352863539199,0.8055991358587039,-8.0,-236.93896
17,0.5739874945006933,-1.0086665961450105,0.8440992566186667,1.4712308575623898,-8.0,-236.93896
18,0.60775146476544,-1.4292160741924742,0.8778632268834132,1.807680981881135,-8.0,-236.93896
19,0.6415154350301867,-1.9096427448662265,0.91162719714816,1.7530477547409389,-8.0,-236.93896
20,0.6752794052949334,-2.3563485786157212,0.9453911674129067,1.3925774963989692,-8.0,-236.93896
21,0.70904337555968,-2.616387178764014,0.9791551376776533,0.9110712774698763,-8.0,-236.93896
22,0.7428073458244266,-2.5662007177678268,1.0129191079424,0.5009566151510209,-8.0,-236.93896
23,0.7765713160891733,-2.1883886991343746,1.0466830782071466,0.27624555607677564,-8.0,-236.93896
24,0.8103352863539199,-1.5871519907272422,1.0804470484718933,0.23523625420014813,-8.0,-236.93896
25,0.8440992566186667,-0.9355929220334476,1.11421101873664,0.2848654385816433,-8.0,-236.93896
26,0.8778632268834133,-0.3916048758903885,1.1479749890013866,0.3055573345214727,-8.0,-236.93896
27,0.91162719714816,-0.03300445998094088,1.1817389592661334,0.21627827697376217,-8.0,-236.93896
28,0.9453911674129066,0.1573819441222819,1.21550292953088,0.004758331992495696,-8.0,-236.93896
29,0.9791551376776533,0.26060429799298973,1.2492668997956267,-0.2873372864047266,-8.0,-236.93896
30,1.0129191079424,0.37241967522233677,1.2830308700603734,-0.6058847373100998,-8.0,-236.93896
31,1.0466830782071466,0.5635194935775916,1.31679484032512,-0.9189876567542163,-8.0,-236.93896
32,1.0804470484718933,0.8585651513964665,1.3505588105898667,-1.2190726547005204,-8.0,-236.93896
33,1.11421101873664,1.228477372080107,1.3843227808546135,-1.4923199615769336,-8.0,-236.93896
34,1.1479749890013866,1.5908854146793656,1.41808675111936,-1.6826940113836049,-8.0,-236.93896
35,1.1817389592661334,1.8224969071064623,1.4518507213841068,-1.687257691091725,-8.0,-236.93896
36,1.21550292953088,1.7906872625696666,1.4856146916488533,-1.4009692171022488,-8.0,-236.93896
37,1.2492668997956267,1.4045584506571274,1.5193786619136,-0.791710311297546,-8.0,-236.93896
38,1.2830308700603734,0.6709117790180289,1.5531426321783468,0.044222792909045495,-8.0,-236.93896
39,1.31679484032512,-0.27401154134353434,1.5869066024430933,0.8932241108161689,-8.0,-236.93896
40,1.3505588105898667,-1.1865805773008498,1.62067057270784,1.509051222275682,-8.0,-236.93896
41,1.3843227808546132,-1.797305819352831,1.6544345429725866,1.7271778980034205,-8.0,-236.93896
42,1.41808675111936,-1.9199344224636696,1.6881985132373334,1.5417052804119027,-8.0,-236.93896
43,1.4518507213841065,-1.5326419511534086,1.72196248350208,1.0999518907355001,-8.0,-236.93896
44,1.4856146916488533,-0.7866582480815197,1.7557264537668267,0.6206136709717122,-8.0,-236.93896
45,1.5193786619136,0.06270776640989595,1.7894904240315734,0.2851224596951602,-8.0,-236.93896
46,1.5531426321783466,0.7654428562547111,1.82325439429632,0.162048502616682,-8.0,-236.93896
47,1.5869066024430933,1.1709430519404354,1.8570183645610667,0.19915370341150532,-8.0,-236.93896
48,1.6206705727078399,1.2648054073487973,1.8907823348258133,0.27620729505058833,-8.0,-236.93896
49,1.6544345429725866,1.139631386197572,1.92454630509056,0.2797156866521942,-8.0,-236.93896
50,1.6881985132373334,0.9242356160780792,1.9583102753553068,0.1554323450271632,-8.0,-236.93896
51,1.72196248350208,0.7130383867619405,1.9920742456200533,-0.0843455951710067,-8.0,-236.93896
52,1.7557264537668267,0.5322979349729777,2.0258382158848,-0.3901443810530868,-8.0,-236.93896
53,1.7894904240315732,0.3550559558233461,2.0596021861495464,-0.7117249763801046,-8.0,-236.93896
54,1.82325439429632,0.14643617515881616,2.093366156414293,-1.0135870073735525,-8.0,-236.93896
55,1.8570183645610667,-0.09553437428136148,2.12713012667904,-1.262680298048081,-8.0,-236.93896
56,1.8907823348258133,-0.33110153857921487,2.1608940969437866,-1.4062106635599745,-8.0,-236.93896
57,1.92454630509056,-0.5051343524345508,2.1946580672085334,-1.3679973851229146,-8.0,-236.93896
58,1.9583102753553066,-0.587675445403504,2.2284220374732797,-1.079301419305037,-8.0,-236.93896
59,1.9920742456200533,-0.5991601084923615,2.2621860077380265,-0.5315486523331171,-8.0,-236.93896
60,2.0258382158848,-0.6021866916996302,2.2959499780027732,0.1853962572186997,-8.0,-236.93896
61,2.059602186149547,-0.6643599654008215,2.32971394826752,0.8944412386656382,-8.0,-236.93896
62,2.093366156414293,-0.8151593010048858,2.3634779185322663,1.3976011879851542,-8.0,-236.93896
63,2.12713012667904,-1.0228767612125595,2.397241888797013,1.5648933470610256,-8.0,-236.93896
64,2.1608940969437866,-1.2050999837446843,2.43100585906176,1.3944196799948072,-8.0,-236.93896
65,2.1946580672085334,-1.2668212011423623,2.4647698293265066,1.007762733462016,-8.0,-236.93896
66,2.22842203747328,-1.145638309281471,2.4985337995912533,0.5840859509444705,-8.0,-236.93896
67,2.2621860077380265,-0.8408764169924987,2.5322977698559996,0.2720445707925977,-8.0,-236.93896
68,2.2959499780027732,-0.4125575226354776,2.5660617401207464,0.12813580435996924,-8.0,-236.93896
69,2.32971394826752,0.047911915805241206,2.566061740120747,0.12813580435996733,-7.0,-207.32159000000001
70,2.3634779185322667,0.4578228211514272,2.5998257103854936,0.11046847709453794,-7.0,-207.32159000000001
71,2.3972418887970135,0.7705864358580667,2.6335896806502403,0.12312397117885535,-7.0,-207.32159000000001
72,2.43100585906176,0.977027363791851,2.6673536509149867,0.07926484325789714,-7.0,-207.32159000000001
73,2.4647698293265066,1.0872190095210206,2.7011176211797334,-0.05463462433044754,-7.0,-207.32159000000001
74,2.4985337995912533,1.1139558046478406,2.73488159144448,-0.25468971505168286,-7.0,-207.32159000000001
75,2.532297769856,1.0744285749567102,2.768645561709227,-0.4701898404402495,-7.0,-207.32159000000001
76,2.566061740120747,1.0050287000786955,2.8024095319739737,-0.6630335798026246,-7.0,-207.32159000000001
77,2.599825710385493,0.9647935602088583,2.83617350223872,-0.8276188183952276,-7.0,-207.32159000000001
78,2.63358968065024,1.008272991516325,2.8699374725034668,-0.9783879941489961,-7.0,-207.32159000000001
79,2.6673536509149867,1.1388432745833743,2.9037014427682135,-1.1157784387606287,-7.0,-207.32159000000001
80,2.7011176211797334,1.2795412697995765,2.9374654130329603,-1.1980636445904433,-7.0,-207.32159000000001
81,2.7348815914444797,1.29173953450162,2.9712293832977066,-1.145226738075448,-7.0,-207.32159000000001
82,2.7686455617092265,1.0383965811730886,3.0049933535624533,-0.8806316376743032,-7.0,-207.32159000000001
83,2.8024095319739732,0.45907211274273124,3.0725212940919464,0.25074660826101963,-8.0,-236.93896
84,2.83617350223872,-0.38267683992661816,3.106285264356693,0.8768826945969956,-8.0,-236.93896
85,2.8699374725034668,-1.3057997939280854,3.14004923462144,1.31496805183839,-8.0,-236.93896
86,2.903701442768213,-2.0743678041520544,3.1738132048861862,1.455532905103823,-8.0,-236.93896
87,2.93746541303296,-2.490343714965417,3.207577175150933,1.303709886241247,-8.0,-236.93896
88,2.9712293832977066,-2.4709229764626985,3.2413411454156797,0.9701877042286291,-8.0,-236.93896
89,3.0049933535624533,-2.0705815665029856,3.2751051156804265,0.6111195962683498,-8.0,-236.93896
90,3.0387573238272,-1.4407962751776724,3.3088690859451733,0.35220418499844397,-8.0,-236.93896
91,3.0725212940919464,-0.7567715263696628,3.3426330562099196,0.23762172552004962,-8.0,-236.93896
92,3.106285264356693,-0.15331778700240314,3.3763970264746663,0.22679903825298106,-8.0,-236.93896
93,3.14004923462144,0.302851859581109,3.106285264356693,0.8768826945969956,1.0,29.61737
94,3.1738132048861867,0.6040223480982934,3.14004923462144,1.31496805183839,1.0,29.61737
95,3.2075771751509334,0.7757056856651737,3.1738132048861867,1.4555329051038248,1.0,29.61737
96,3.2413411454156797,0.856177703247437,3.207577175150933,1.303709886241247,1.0,29.61737
97,3.2751051156804265,0.8873476479271519,3.2413411454156797,0.9701877042286291,1.0,29.61737
98,3.3088690859451733,0.9068075747802561,3.2751051156804265,0.6111195962683498,1.0,29.61737
99,3.34263305620992,0.9327410521702232,3.3088690859451733,0.35220418499844397,1.0,29.61737
100,3.3763970264746668,0.9498261302330696,3.3763970264746668,0.22679903825298092,0.0,0.0
101,3.410160996739413,0.9134284943686823,3.3763970264746663,0.22679903825298106,1.0,29.61737
102,3.44392496700416,0.7776409471724959,3.410160996739413,0.2337894345415807,1.0,29.61737
103,3.4776889372689066,0.5305440607859023,3.44392496700416,0.18212187671281008,1.0,29.61737
104,3.5114529075336534,0.20948546272466959,3.4776889372689066,0.043459394338921674,1.0,29.61737
105,3.5452168777984,-0.11837001148714481,3.5114529075336534,-0.15830316928177932,1.0,29.61737
106,3.5789808480631464,-0.3976344945378427,3.5452168777983997,-0.37400114941044255,1.0,29.61737
107,3.612744818327893,-0.6155133375948351,3.5789808480631464,-0.5660384858144839,1.0,29.61737
108,3.64650878859264,-0.79531861284049,3.612744818327893,-0.7297544640485871,1.0,29.61737
109,3.6802727588573867,-0.9575033807215689,3.64650878859264,-0.8850103576761928,1.0,29.61737
110,3.7140367291221335,-1.0825790399822461,3.6802727588573867,-1.0436731789361227,1.0,29.61737
111,3.7478006993868798,-1.1102951094080749,3.714036729122133,-1.1762802413624927,1.0,29.61737
112,3.7815646696516265,-0.9794887404252843,3.7478006993868798,-1.2052403827569937,1.0,29.61737
113,3.8153286399163733,-0.6795641329833226,3.7815646696516265,-1.0376803964978156,1.0,29.61737
114,3.84909261018112,-0.2745016781227831,3.8153286399163733,-0.6247175180505503,1.0,29.61737
115,3.882856580445867,0.12090524728160262,3.84909261018112,-0.011707453176563338,1.0,29.61737
116,3.916620550710613,0.399953705636948,3.8828565804458663,0.6570801356614532,1.0,29.61737
117,3.95038452097536,0.5204253419721483,3.916620550710613,1.1911294867895397,1.0,29.61737
118,3.9841484912401066,0.5212644592663388,3.95038452097536,1.4390839307946144,1.0,29.61737
119,4.017912461504853,0.48964602086041864,3.984148491240106,1.359303597073318,1.0,29.61737
120,4.0516764317696,0.5028288168353032,4.017912461504854,1.0352375428678013,1.0,29.61737
121,4.085440402034346,0.5840227342291162,4.0516764317696,0.6280546552403043,1.0,29.61737
122,4.119204372299094,0.6978457323865928,4.085440402034347,0.2951271840222471,1.0,29.61737
123,4.15296834256384,0.782197483549223,4.119204372299094,0.11992073325018938,1.0,29.61737
124,4.186732312828586,0.7901277806364746,4.15296834256384,0.08835999650246718,1.0,29.61737
125,4.2204962830933335,0.7118247643897796,4.186732312828587,0.11763949024300649,1.0,29.61737
126,4.25426025335808,0.5649001660686385,4.2204962830933335,0.11409727470055739,1.0,29.61737
127,4.288024223622827,0.36704935060715654,4.254260253358081,0.023923050891192826,1.0,29.61737
128,4.321788193887573,0.1180856411267063,4.288024223622827,-0.1499368838741285,1.0,29.61737
129,4.35555216415232,-0.19172699738681043,4.321788193887573,-0.3670470665424306,1.0,29.61737
130,4.389316134417067,-0.5535069402282708,4.3555521641523205,-0.5844669185015051,1.0,29.61737
131,4.423080104681813,-0.9155273570380106,4.389316134417067,-0.7798036558608191,1.0,29.61737
132,4.45684407494656,-1.185561593298678,4.423080104681814,-0.9467975171495999,1.0,29.61737
133,4.490608045211307,-1.2650249670421754,4.45684407494656,-1.0705051528411822,1.0,29.61737
134,4.524372015476053,-1.0987303752219206,4.490608045211307,-1.106525301718067,1.0,29.61737
135,4.5581359857408,-0.7121399054255629,4.524372015476054,-0.9880865674405926,1.0,29.61737
136,4.5918999560055465,-0.2126916786918297,4.5581359857408,-0.6649959495119174,1.0,29.61737
137,4.625663926270294,0.2496723774626566,4.591899956005547,-0.15198388018812736,1.0,29.61737
138,4.65942789653504,0.5456247546524415,4.625663926270294,0.4495413664867301,1.0,29.61737
139,4.693191866799786,0.6222222521821054,4.65942789653504,0.979908266615744,1.0,29.61737
140,4.7269558370645335,0.5223208503302428,4.693191866799787,1.2905837783935243,1.0,29.61737
141,4.76071980732928,0.35628669594501056,4.7269558370645335,1.3153653633812612,1.0,29.61737
142,4.794483777594027,0.23934329280348118,4.760719807329281,1.1001915090505627,1.0,29.61737
143,4.828247747858773,0.22732272250618224,4.794483777594027,0.7740566579135034,1.0,29.61737
144,4.86201171812352,0.287260066209089,4.828247747858773,0.4797672316317757,1.0,29.61737
145,4.895775688388267,0.32222094071286334,4.8620117181235205,0.3051703578534897,1.0,29.61737
146,4.929539658653013,0.23840340236215005,4.895775688388267,0.2512085991576837,1.0,29.61737
147,4.96330362891776,0.015322144226331278,4.929539658653014,0.24897318770814128,1.0,29.61737
148,4.997067599182507,-0.26559399664033867,4.96330362891776,0.21025246377269988,1.0,29.61737
149,5.030831569447253,-0.4579252937003584,4.997067599182507,0.08024533702668574,1.0,29.61737
150,5.064595539712,-0.4383051377605308,5.030831569447254,-0.13605411554341953,1.0,29.61737
151,5.0983595099767465,-0.19418411130063407,5.064595539712,-0.3846090346273739,1.0,29.61737
152,5.132123480241494,0.14915753889984235,5.098359509976747,-0.59960559402227,1.0,29.61737
153,5.16588745050624,0.38792666187600433,5.132123480241494,-0.7430990806796902,1.0,29.61737
154,5.199651420770986,0.35202394185798597,5.16588745050624,-0.8234307752644028,1.0,29.61737
155,5.2334153910357335,0.0007464422989545741,5.199651420770987,-0.8818980210977165,1.0,29.61737
156,5.26717936130048,-0.5524933435381257,5.2334153910357335,-0.9557215716713542,1.0,29.61737
157,5.300943331565226,-1.0937199143608969,5.26717936130048,-1.0400806633376944,1.0,29.61737
158,5.334707301829973,-1.4064717986300597,5.300943331565227,-1.074872061557481,1.0,29.61737
159,5.36847127209472,-1.3656815918372351,5.334707301829973,-0.9696748464661726,1.0,29.61737
160,5.402235242359467,-0.9862000278283484,5.3684712720947205,-0.657663968331054,1.0,29.61737
161,5.435999212624213,-0.40622647519092836,5.402235242359467,-0.14824424183425663,1.0,29.61737
162,5.4697631828889595,0.18430208164226172,5.435999212624213,0.45628947435580386,1.0,29.61737
163,5.503527153153707,0.6323955392531598,5.46976318288896,0.9961004082894069,1.0,29.61737
164,5.537291123418453,0.8810537903140113,5.503527153153707,1.3250737375268649,1.0,29.61737
165,5.5710550936832,0.9712345261971739,5.537291123418454,1.3780445890465052,1.0,29.61737
166,5.6048190639479465,0.9941233902630092,5.5710550936832,1.1958782518558682,1.0,29.61737
167,5.638583034212693,1.02744504474453,5.6048190639479465,0.8964452620044276,1.0,29.61737
168,5.67234700447744,1.0928049569554545,5.638583034212694,0.6112714466793379,1.0,29.61737
169,5.706110974742186,1.1537318065056137,5.67234700447744,0.4244498923172703,1.0,29.61737
170,5.7398749450069335,1.1487940743569478,5.706110974742187,0.3444412175455982,1.0,29.61737
171,5.77363891527168,1.0350389823986437,5.7398749450069335,0.31788435863836256,1.0,29.61737
172,5.807402885536426,0.8142744082762363,5.77363891527168,0.27175481733975965,1.0,29.61737
173,5.841166855801173,0.5286138824681536,5.77363891527168,0.27175481733975965,2.0,59.23474
174,5.87493082606592,0.23143046103425105,5.807402885536426,0.15794180343274725,2.0,59.23474
175,5.908694796330667,-0.046855214762634045,5.841166855801173,-0.02323798709790462,2.0,59.23474
176,5.942458766595413,-0.31664668527510775,5.87493082606592,-0.23032835738563448,2.0,59.23474
177,5.9762227368601595,-0.6177101009657656,5.908694796330666,-0.41142363714697566,2.0,59.23474
178,6.009986707124907,-0.9821240918196618,5.942458766595413,-0.5386640723361877,2.0,59.23474
179,6.043750677389653,-1.3930554800572525,5.9762227368601595,-0.6252315602775856,2.0,59.23474
180,6.0775146476544,-1.7675176333157814,6.009986707124907,-0.7132561713394472,2.0,59.23474
181,6.1112786179191465,-1.98013607030136,6.043750677389653,-0.837970467823478,2.0,59.23474
182,6.145042588183893,-1.920936114932079,6.077514647654399,-0.9892891824870298,2.0,59.23474
183,6.17880655844864,-1.5571620411655873,6.1112786179191465,-1.097430109207255,2.0,59.23474
184,6.212570528713386,-0.9621649696828126,6.145042588183893,-1.0586192299802217,2.0,59.23474
185,6.2463344989781335,-0.2909757959003673,6.17880655844864,-0.7932147423863495,2.0,59.23474
186,6.28009846924288,0.2862965193855125,6.212570528713386,-0.30461986732471924,2.0,59.23474
187,6.313862439507626,0.6573894086012165,6.246334498978133,0.2997514908079779,2.0,59.23474
188,6.347626409772373,0.8096370622191118,6.28009846924288,0.845416801530157,2.0,59.23474
189,6.38139038003712,0.8215459761300553,6.313862439507626,1.1700411902836532,2.0,59.23474
190,6.415154350301867,0.8103198605724046,6.347626409772373,1.200712962872647,2.0,59.23474
191,6.448918320566613,0.862890120248184,6.38139038003712,0.9845869178803893,2.0,59.23474
192,6.4826822908313595,0.9880363359179822,6.415154350301866,0.6567513672706032,2.0,59.23474
193,6.516446261096107,1.1173584135453456,6.448918320566613,0.366645869017532,2.0,59.23474
194,6.550210231360853,1.1536733281024876,6.4826822908313595,0.2061060114453825,2.0,59.23474
195,6.5839742016256,1.0349228076215564,6.516446261096107,0.17672077371518544,2.0,59.23474
196,6.6177381718903465,0.7729310461872727,6.550210231360853,0.20831346533063264,2.0,59.23474
197,6.651502142155093,0.4450561081384594,6.583974201625599,0.21125164827267184,2.0,59.23474
198,6.68526611241984,0.14695626799969605,6.6177381718903465,0.12940394691101964,2.0,59.23474
199,6.719030082684586,-0.06417759523103438,6.6177381718903465,0.12940394691101964,3.0,88.85211000000001
200,6.7527940529493335,-0.20351747732530062,6.651502142155094,-0.035070596218819056,3.0,88.85211000000001
201,6.78655802321408,-0.34960152463211513,6.68526611241984,-0.2342809287165413,3.0,88.85211000000001
202,6.820321993478826,-0.593855735003441,6.719030082684586,-0.4115245356823775,3.0,88.85211000000001
203,6.854085963743573,-0.9731066004086129,6.7527940529493335,-0.5372468437175779,3.0,88.85211000000001
204,6.88784993400832,-1.4238075604863967,6.78655802321408,-0.6216901850327149,3.0,88.85211000000001
205,6.921613904273067,-1.7911411703361968,6.820321993478827,-0.6972537641470524,3.0,88.85211000000001
206,6.955377874537813,-1.8979470642409766,6.854085963743573,-0.7826708454373549,3.0,88.85211000000001
207,6.9891418448025595,-1.6401756535345413,6.88784993400832,-0.8536015106057055,3.0,88.85211000000001
208,7.022905815067307,-1.0525353910845854,6.921613904273067,-0.8425177499489481,3.0,88.85211000000001
209,7.056669785332053,-0.3008995939447112,6.955377874537813,-0.673881177573603,3.0,88.85211000000001
210,7.0904337555968,0.39759810345336544,6.98914184480256,-0.3168787252455153,3.0,88.85211000000001
211,7.1241977258615465,0.8797698722091176,7.022905815067307,0.1775475479998627,3.0,88.85211000000001
212,7.157961696126293,1.1041425551152018,7.056669785332053,0.6832331491231612,3.0,88.85211000000001
213,7.19172566639104,1.1443558850605444,7.0904337555968,1.051035325819992,3.0,88.85211000000001
214,7.225489636655786,1.1211229281620494,7.1241977258615465,1.1792341400305038,3.0,88.85211000000001
215,7.259253606920534,1.1237294313694461,7.157961696126294,1.0616323107281391,3.0,88.85211000000001
216,7.29301757718528,1.1707318171737193,7.19172566639104,0.7859695331229601,3.0,88.85211000000001
217,7.326781547450026,1.223609588095656,7.225489636655786,0.48510828869216144,3.0,88.85211000000001
218,7.360545517714773,1.2290346113063308,7.259253606920534,0.2701660109501851,3.0,88.85211000000001
219,7.39430948797952,1.1543217171725144,7.29301757718528,0.18234173625491598,3.0,88.85211000000001
220,7.428073458244267,0.9974212072523859,7.326781547450027,0.18627497288827127,3.0,88.85211000000001
221,7.461837428509013,0.7760890537403491,7.360545517714773,0.20297338207304808,3.0,88.85211000000001
222,7.4956013987737595,0.5117585906416627,7.39430948797952,0.1597619822265768,3.0,88.85211000000001
223,7.529365369038507,0.21969066093026812,7.428073458244267,0.028834521521114775,3.0,88.85211000000001
224,7.563129339303253,-0.09297037761754458,7.461837428509013,-0.16417207457988134,3.0,88.85211000000001
225,7.596893309568,-0.42577716087325307,7.49560139877376,-0.3620702117296808,3.0,88.85211000000001
226,7.6306572798327466,-0.7831650106929885,7.529365369038507,-0.5130893092604127,3.0,88.85211000000001
227,7.664421250097493,-1.1698876434182541,7.563129339303253,-0.6012192166767734,3.0,88.85211000000001
228,7.69818522036224,-1.5801024322641923,7.596893309568,-0.6530169185379693,3.0,88.85211000000001
229,7.731949190626986,-1.9826107581483667,7.6306572798327466,-0.7166358953193263,3.0,88.85211000000001
230,7.765713160891734,-2.312638535596669,7.664421250097494,-0.8238199194289452,3.0,88.85211000000001
231,7.79947713115648,-2.481139057907512,7.69818522036224,-0.9564957134852787,3.0,88.85211000000001
232,7.833241101421226,-2.40317318312312,7.731949190626986,-1.040365453537542,3.0,88.85211000000001
233,7.867005071685973,-2.0342637845055713,7.765713160891734,-0.9755419141041499,3.0,88.85211000000001
234,7.90076904195072,-1.3975040095170614,7.79947713115648,-0.6926432162524986,3.0,88.85211000000001
235,7.934533012215467,-0.58809005119922,7.833241101421227,-0.20372486588940475,3.0,88.85211000000001
236,7.968296982480213,0.24894302665100587,7.867005071685973,0.38495427265605725,3.0,88.85211000000001
237,8.00206095274496,0.962829711190944,7.900769041950721,0.9116648573966789,3.0,88.85211000000001
238,8.035824923009706,1.4484292441156796,7.934533012215466,1.2314662835929806,3.0,88.85211000000001
239,8.069588893274453,1.6819895532222944,7.968296982480213,1.2821233796570903,3.0,88.85211000000001
240,8.1033528635392,1.721750348957412,8.00206095274496,1.1071467227863554,3.0,88.85211000000001
241,8.137116833803946,1.6727341511607854,8.035824923009706,0.8255275389894343,3.0,88.85211000000001
242,8.170880804068693,1.6354838428300118,8.069588893274453,0.5682724614954976,3.0,88.85211000000001
243,8.20464477433344,1.6634121897281102,8.1033528635392,0.41758128420480206,3.0,88.85211000000001
244,8.238408744598187,1.7435359436554998,8.137116833803947,0.37851643092462967,3.0,88.85211000000001
245,8.272172714862933,1.8040182530713442,8.170880804068693,0.3922145065595577,3.0,88.85211000000001
246,8.30593668512768,1.74604869025521,8.20464477433344,0.3777221847948096,3.0,88.85211000000001
247,8.339700655392427,1.4913360562900082,8.238408744598187,0.2777886565606831,3.0,88.85211000000001
248,8.373464625657173,1.0254324492419888,8.272172714862933,0.08613035719049719,3.0,88.85211000000001
249,8.40722859592192,0.4113644235236354,8.339700655392427,-0.3772017250879055,2.0,59.23474
250,8.440992566186667,-0.2387524313284226,8.373464625657174,-0.5303186451562815,2.0,59.23474
251,8.474756536451412,-0.8189230335924245,8.40722859592192,-0.602631984650294,2.0,59.23474
252,8.50852050671616,-1.2761093615366776,8.440992566186667,-0.6302980991870265,2.0,59.23474
253,8.542284476980907,-1.6182541595459787,8.474756536451414,-0.6746284298650239,2.0,59.23474
254,8.576048447245654,-1.8804383001548857,8.508520506716161,-0.7813611120828036,2.0,59.23474
255,8.6098124175104,-2.0765837272375305,8.542284476980907,-0.9415211394430039,2.0,59.23474
256,8.643576387775147,-2.173990499498675,8.576048447245654,-1.0782293566599424,2.0,59.23474
257,8.677340358039894,-2.1088353051447575,8.609812417510401,-1.0744195887978634,2.0,59.23474
258,8.71110432830464,-1.8294079427973877,8.643576387775147,-0.8343951037195476,2.0,59.23474
259,8.744868298569386,-1.3365263280711683,8.677340358039894,-0.34818073672483074,2.0,59.23474
260,8.778632268834134,-0.6968485850372139,8.711104328304641,0.28142860577945666,2.0,59.23474
261,8.812396239098879,-0.023485161091505245,8.744868298569386,0.8723980499807353,2.0,59.23474
262,8.846160209363626,0.5651540648709191,8.778632268834134,1.2448582710184193,2.0,59.23474
263,8.879924179628373,0.9883553169252282,8.81239623909888,1.3060750333542839,2.0,59.23474
264,8.91368814989312,1.2268432786934915,8.846160209363628,1.0906285142392635,2.0,59.23474
265,8.947452120157866,1.315177817502028,8.879924179628373,0.7344949453137861,2.0,59.23474
266,8.981216090422613,1.3090564407658645,8.91368814989312,0.40085505881420475,2.0,59.23474
267,9.01498006068736,1.2501507890390628,8.947452120157868,0.2010333941216803,2.0,59.23474
268,9.048744030952106,1.1514013595935098,8.981216090422613,0.15212587614832743,2.0,59.23474
269,9.082508001216853,1.008107896470352,9.01498006068736,0.18820459455175276,2.0,59.23474
270,9.1162719714816,0.8190167200257479,9.048744030952108,0.21143428341737563,2.0,59.23474
271,9.150035941746346,0.5953478633682859,9.082508001216853,0.1504523960345428,2.0,59.23474
272,9.183799912011093,0.34976272625002885,9.1162719714816,-0.005748308164450274,2.0,59.23474
273,9.21756388227584,0.07884873976313243,9.150035941746347,-0.21285996860859302,2.0,59.23474
274,9.251327852540587,-0.23812674282721705,9.183799912011095,-0.4068866584834137,2.0,59.23474
275,9.285091822805333,-0.6146197823815382,9.21756388227584,-0.5459193429867015,2.0,59.23474
276,9.31885579307008,-1.022208734521275,9.251327852540587,-0.6319210200876351,2.0,59.23474
277,9.352619763334827,-1.3763482958654256,9.285091822805335,-0.6994627258559967,2.0,59.23474
278,9.386383733599573,-1.5618347523194018,9.31885579307008,-0.7791048424055129,2.0,59.23474
279,9.42014770386432,-1.4887296232569747,9.352619763334827,-0.8601009218045618,2.0,59.23474
280,9.453911674129067,-1.1455508089071054,9.386383733599574,-0.8799736611106517,2.0,59.23474
281,9.487675644393812,-0.614976561465099,9.42014770386432,-0.7537157301218292,2.0,59.23474
282,9.52143961465856,-0.039641851058657716,9.453911674129067,-0.42966654469387966,2.0,59.23474
283,9.555203584923307,0.4428202867553368,9.487675644393814,0.06197755038889513,2.0,59.23474
284,9.588967555188054,0.7572806440739323,9.521439614658561,0.6026730192491165,2.0,59.23474
285,9.6227315254528,0.9097118573153108,9.555203584923307,1.0319021740348757,2.0,59.23474
286,9.656495495717547,0.9617495551296329,9.588967555188054,1.2231704889429444,2.0,59.23474
287,9.690259465982294,0.9823185731231583,9.622731525452801,1.1457702549196296,2.0,59.23474
288,9.72402343624704,1.007096037622796,9.656495495717547,0.8762620994957178,2.0,59.23474
289,9.757787406511786,1.026481411028824,9.690259465982294,0.5543142234476925,2.0,59.23474
290,9.791551376776534,1.0025029196595665,9.724023436247041,0.3100983968742073,2.0,59.23474
291,9.825315347041279,0.8990689617305923,9.757787406511786,0.20446188677410365,2.0,59.23474
292,9.859079317306026,0.706323623673698,9.791551376776534,0.2119814820591439,2.0,59.23474
293,9.892843287570773,0.44640171965526937,9.82531534704128,0.2501661589655433,2.0,59.23474
294,9.92660725783552,0.15806106042158888,9.892843287570773,0.11654982846825948,1.0,29.61737
295,9.960371228100266,-0.13177272058017525,9.926607257835519,-0.0841804727702132,1.0,29.61737
296,9.994135198365013,-0.4313028920619716,9.960371228100266,-0.3145093059653506,1.0,29.61737
297,10.02789916862976,-0.7801449009493644,9.994135198365013,-0.5173789734254871,1.0,29.61737
298,10.061663138894506,-1.2102836206197207,10.027899168629759,-0.6672714439412663,1.0,29.61737
299,10.095427109159253,-1.692015497970084,10.061663138894506,-0.7798446812304419,1.0,29.61737
300,10.129191079424,-2.106483830337324,10.095427109159253,-0.8911984032826281,1.0,29.61737
301,10.162955049688746,-2.277380316225884,10.129191079423999,-1.0188915311223914,1.0,29.61737
302,10.196719019953493,-2.0563131837086988,10.162955049688746,-1.130116459900883,1.0,29.61737
303,10.23048299021824,-1.4156522996759744,10.196719019953493,-1.141925986361443,1.0,29.61737
304,10.264246960482987,-0.4896444400843221,10.23048299021824,-0.9613351364510954,1.0,29.61737
305,10.298010930747733,0.46894518750650316,10.264246960482986,-0.5468491675968583,1.0,29.61737
306,10.33177490101248,1.1983404010354068,10.298010930747733,0.046258056469950355,1.0,29.61737
307,10.365538871277227,1.542974484769464,10.33177490101248,0.670826021872628,1.0,29.61737
308,10.399302841541973,1.5108598488582652,10.365538871277225,1.1478524337864493,1.0,29.61737
309,10.43306681180672,1.2471583978847363,10.399302841541973,1.3503072926663124,1.0,29.61737
310,10.466830782071467,0.9472915737088652,10.43306681180672,1.2619714416640044,1.0,29.61737
311,10.500594752336212,0.760988070561581,10.466830782071465,0.9777607487222701,1.0,29.61737
312,10.53435872260096,0.7344464351575268,10.500594752336212,0.6483956994547757,1.0,29.61737
313,10.568122692865707,0.8113945424295598,10.53435872260096,0.40392059003224023,1.0,29.61737
314,10.601886663130452,0.8824444119538812,10.568122692865705,0.29824341581193997,1.0,29.61737
315,10.6356506333952,0.8510651441342985,10.601886663130452,0.2998911529774756,1.0,29.61737
316,10.669414603659947,0.6819309609693718,10.6356506333952,0.32634504009173826,1.0,29.61737
317,10.703178573924694,0.41081874095062965,10.669414603659947,0.29740833279045376,1.0,29.61737
318,10.73694254418944,0.11528270739915002,10.703178573924692,0.17735390260091033,1.0,29.61737
319,10.770706514454186,-0.1363179501185565,10.73694254418944,-0.013864214343414644,1.0,29.61737
320,10.804470484718934,-0.32903709019841876,10.770706514454186,-0.2214036746040053,1.0,29.61737
321,10.838234454983679,-0.5120886336776485,10.804470484718932,-0.39302605201965646,1.0,29.61737
322,10.871998425248426,-0.7653802772037341,10.838234454983679,-0.5109444300583853,1.0,29.61737
323,10.905762395513174,-1.1362698605595354,10.871998425248426,-0.5997987211068307,1.0,29.61737
324,10.939526365777919,-1.5831740690405858,10.905762395513172,-0.7053872792722259,1.0,29.61737
325,10.973290336042666,-1.9666471099083247,10.939526365777919,-0.8550828217312301,1.0,29.61737
326,11.007054306307413,-2.1052861092248545,10.973290336042666,-1.023251277676162,1.0,29.61737
327,11.04081827657216,-1.8718766448549815,11.007054306307413,-1.1260391789854414,1.0,29.61737
328,11.074582246836906,-1.2723524934273662,11.040818276572159,-1.0560953215975937,1.0,29.61737
329,11.108346217101653,-0.4550774476033877,11.074582246836906,-0.7438783742245628,1.0,29.61737
330,11.1421101873664,0.3580387888434321,11.108346217101653,-0.211609527279416,1.0,29.61737
331,11.175874157631146,0.9764934116563223,11.142110187366399,0.41597975555279226,1.0,29.61737
332,11.209638127895893,1.320216344520867,11.175874157631146,0.9576667362893414,1.0,29.61737
333,11.24340209816064,1.4316166597708182,11.209638127895893,1.2574096467354978,1.0,29.61737
334,11.277166068425386,1.4226194142259334,11.277166068425386,1.016429138610384,0.0,0.0
335,11.310930038690133,1.3954059288768983,11.310930038690133,0.678779729022525,0.0,0.0
336,11.34469400895488,1.3855739106442961,11.34469400895488,0.3916494496309392,0.0,0.0
337,11.378457979219627,1.3568511958986786,11.378457979219627,0.24019876898133008,0.0,0.0
338,11.412221949484373,1.2423207654692077,11.412221949484373,0.21889037733588573,0.0,0.0
339,11.44598591974912,1.000534117790273,11.412221949484373,0.21889037733588573,1.0,29.61737
340,11.479749890013867,0.650493475423051,11.44598591974912,0.25319960181063195,1.0,29.61737
341,11.513513860278612,0.2659723851358364,11.479749890013865,0.2525665357509006,1.0,29.61737
342,11.54727783054336,-0.06589234623682068,11.513513860278612,0.16223440471272182,1.0,29.61737
343,11.581041800808107,-0.2971716826375423,11.54727783054336,-0.013547144347689832,1.0,29.61737
344,11.614805771072852,-0.45075525929981286,11.614805771072852,-0.41756362087322973,0.0,0.0
345,11.6485697413376,-0.6075645759300734,11.614805771072852,-0.41756362087322973,1.0,29.61737
346,11.682333711602347,-0.8507401508523538,11.6485697413376,-0.5634361077738751,1.0,29.61737
347,11.716097681867094,-1.198098042168578,11.682333711602347,-0.6786661932345294,1.0,29.61737
348,11.74986165213184,-1.5685657642358533,11.716097681867092,-0.7998727892028068,1.0,29.61737
349,11.783625622396587,-1.8119356734056697,11.74986165213184,-0.9440837486337332,1.0,29.61737
350,11.817389592661334,-1.7901999547898915,11.783625622396587,-1.0753269217046035,1.0,29.61737
351,11.85115356292608,-1.460886517537876,11.817389592661332,-1.1050896022592274,1.0,29.61737
352,11.884917533190826,-0.9080257857175124,11.85115356292608,-0.934877668255564,1.0,29.61737
353,11.918681503455574,-0.3002088232385405,11.884917533190826,-0.5211681343637614,1.0,29.61737
354,11.952445473720319,0.19719789463657392,11.918681503455572,0.07717893409804677,1.0,29.61737
355,11.986209443985066,0.5013841482909095,11.952445473720319,0.7047663164442076,1.0,29.61737
356,12.019973414249813,0.6381086533190578,11.986209443985066,1.1737041966396875,1.0,29.61737
357,12.05373738451456,0.7050637312425999,12.019973414249813,1.3523942463081682,1.0,29.61737
358,12.087501354779306,0.8000117603624937,12.053737384514559,1.2274919116445404,1.0,29.61737
359,12.121265325044053,0.9585705196812273,12.121265325044053,0.5429824257935829,0.0,0.0
360,12.1550292953088,1.137520081235965,12.1550292953088,0.2836771792732793,0.0,0.0
361,12.188793265573546,1.25005477323601,12.188793265573546,0.1794362856521929,0.0,0.0
362,12.222557235838293,1.2264401861049288,12.188793265573546,0.1794362856521929,1.0,29.61737
363,12.25632120610304,1.0580618341281056,12.222557235838293,0.1920245245172442,1.0,29.61737
364,12.290085176367786,0.7961209914816852,12.256321206103038,0.2308342885830031,1.0,29.61737
365,12.323849146632533,0.5094209316828137,12.290085176367786,0.21138824767527908,1.0,29.61737
366,12.35761311689728,0.23464929307794907,12.323849146632533,0.09779626344438369,1.0,29.61737
367,12.391377087162027,-0.04397219907626465,12.35761311689728,-0.09116050277094027,1.0,29.61737
368,12.425141057426773,-0.3721237039116314,12.391377087162025,-0.3084199599847499,1.0,29.61737
369,12.45890502769152,-0.7772380985425554,12.425141057426773,-0.5147216226461034,1.0,29.61737
370,12.492668997956267,-1.2281468177018768,12.425141057426774,-0.5147216226461131,2.0,59.23474
371,12.526432968221012,-1.629116197081194,12.45890502769152,-0.6984477720332404,2.0,59.23474
372,12.56019693848576,-1.8533660145162223,12.492668997956267,-0.8665546585107444,2.0,59.23474
373,12.593960908750507,-1.799130032718704,12.526432968221014,-1.0151284429688046,2.0,59.23474
374,12.627724879015252,-1.4398334234911316,12.56019693848576,-1.1041516102707616,2.0,59.23474
375,12.66148884928,-0.8431669804171809,12.593960908750507,-1.060934870215381,2.0,59.23474
376,12.695252819544747,-0.14917038221723605,12.627724879015254,-0.8182742695413089,2.0,59.23474
377,12.729016789809494,0.4826218783452356,12.661488849280001,-0.36706757922721156,2.0,59.23474
378,12.76278076007424,0.9322052752999759,12.695252819544747,0.21269416435111813,2.0,59.23474
379,12.796544730338987,1.1577695968694677,12.729016789809494,0.7697937262059704,2.0,59.23474
380,12.830308700603734,1.1987016985096994,12.762780760074241,1.145173031085599,2.0,59.23474
381,12.86407267086848,1.1445206325379995,12.796544730338987,1.2461219529243823,2.0,59.23474
382,12.897836641133226,1.0858867793921474,12.830308700603734,1.0877783505052698,2.0,59.23474
383,12.931600611397974,1.0710820983748361,12.897836641133226,0.4613507672953158,1.0,29.61737
384,12.965364581662719,1.088291258398551,12.931600611397972,0.2429387045208619,1.0,29.61737
385,12.999128551927466,1.0809691193253863,12.965364581662719,0.15345406463661868,1.0,29.61737
386,13.032892522192213,0.9865329282940739,12.96536458166272,0.15345406463661843,2.0,59.23474
387,13.06665649245696,0.776119292201401,12.999128551927468,0.1485071307002552,2.0,59.23474
388,13.100420462721706,0.4718670222517086,13.032892522192213,0.14866218523659394,2.0,59.23474
389,13.134184432986453,0.13059239461136357,13.06665649245696,0.08908657904410304,2.0,59.23474
390,13.1679484032512,-0.196027853672603,13.100420462721708,-0.048308330139251614,2.0,59.23474
391,13.201712373515946,-0.4976907816104668,13.134184432986453,-0.2347593329023538,2.0,59.23474
392,13.235476343780693,-0.811193196647836,13.1679484032512,-0.42156959429323215,2.0,59.23474
393,13.26924031404544,-1.1872313993505015,13.201712373515948,-0.5742438110430081,2.0,59.23474
394,13.303004284310186,-1.635532485704743,13.235476343780693,-0.6914068636509549,2.0,59.23474
395,13.336768254574933,-2.083445598700948,13.26924031404544,-0.7963673504226043,2.0,59.23474
396,13.37053222483968,-2.3818260461102847,13.303004284310187,-0.9067431859844747,2.0,59.23474
397,13.404296195104427,-2.367881423390364,13.336768254574935,-1.00293247386115,2.0,59.23474
398,13.438060165369173,-1.9567525293425114,13.37053222483968,-1.0200060641348165,2.0,59.23474
399,13.47182413563392,-1.2061639778699158,13.404296195104427,-0.8753718460283235,2.0,59.23474
400,13.505588105898667,-0.30714029529765496,13.438060165369174,-0.5211893067214102,2.0,59.23474
401,13.539352076163413,0.5004243378288997,13.47182413563392,0.009799009173311059,2.0,59.23474
402,13.57311604642816,1.038292658186255,13.505588105898667,0.597947499798019,2.0,59.23474
403,13.606880016692907,1.2622461734598265,13.539352076163414,1.0809720343590947,2.0,59.23474
404,13.640643986957652,1.2606287633620672,13.57311604642816,1.3274461724544269,2.0,59.23474
405,13.6744079572224,1.1887674082407234,13.606880016692907,1.2979001159035681,2.0,59.23474
406,13.708171927487147,1.1795313831240837,13.640643986957654,1.0586598876230822,2.0,59.23474
407,13.741935897751894,1.2759060506715085,13.674407957222401,0.7423258904847366,2.0,59.23474
408,13.77569986801664,1.417292839797936,13.708171927487147,0.4794759075292625,2.0,59.23474
409,13.809463838281387,1.4838668088416689,13.741935897751894,0.33969713301531473,2.0,59.23474
410,13.843227808546134,1.372506637755528,13.775699868016641,0.31082240355037527,2.0,59.23474
411,13.87699177881088,1.0604241704517212,13.809463838281387,0.321720513415041,2.0,59.23474
412,13.910755749075626,0.6210944357877857,13.843227808546134,0.29084160354634353,2.0,59.23474
413,13.944519719340374,0.1859317435302748,13.876991778810881,0.17182383355810302,2.0,59.23474
414,13.978283689605119,-0.12477922926365907,13.910755749075626,-0.027364576596715377,2.0,59.23474
415,14.012047659869866,-0.26378729203855183,13.944519719340374,-0.2586227632070734,2.0,59.23474
416,14.045811630134613,-0.2804124717832014,13.97828368960512,-0.46941020135245376,2.0,59.23474
417,14.079575600399359,-0.2956213967097905,14.012047659869866,-0.6366514399657095,2.0,59.23474
418,14.113339570664106,-0.44044533435518324,14.045811630134613,-0.7769454504004488,2.0,59.23474
419,14.147103540928853,-0.7837802938616913,14.07957560039936,-0.9251185307123347,2.0,59.23474
420,14.1808675111936,-1.2828052690328273,14.113339570664108,-1.0932651232137296,2.0,59.23474
421,14.214631481458346,-1.7865798548923495,14.147103540928853,-1.2378336253376339,2.0,59.23474
422,14.248395451723093,-2.1008589552288925,14.1808675111936,-1.262359759861533,2.0,59.23474
423,14.28215942198784,-2.082760714936548,14.214631481458348,-1.0642642705795116,2.0,59.23474
424,14.315923392252586,-1.7067338082107124,14.248395451723093,-0.6040505954406215,2.0,59.23474
425,14.349687362517333,-1.0595736535708056,14.28215942198784,0.04643879898179373,2.0,59.23474
426,14.38345133278208,-0.27587257524926573,14.315923392252587,0.7144808475365797,2.0,59.23474
427,14.417215303046826,0.5301489188271852,14.349687362517333,1.1989331026560845,2.0,59.23474
428,14.450979273311573,1.285611032610841,14.38345133278208,1.366347269799038,2.0,59.23474
429,14.48474324357632,1.9298123364583928,14.417215303046827,1.2142465600731427,2.0,59.23474
430,14.518507213841067,2.378096131278872,14.450979273311575,0.8646664955214564,2.0,59.23474
431,14.552271184105813,2.5268667528903803,14.48474324357632,0.4942983170306085,2.0,59.23474
432,14.58603515437056,2.3081943674610987,14.518507213841067,0.24437504794605702,2.0,59.23474
433,14.619799124635307,1.7521071570896447,14.552271184105814,0.16094634632373792,2.0,59.23474
434,14.653563094900052,0.9992086652474975,14.552271184105813,0.16094634632373622,3.0,88.85211000000001
435,14.6873270651648,0.24209199498073855,14.58603515437056,0.19311229365912777,3.0,88.85211000000001
436,14.721091035429547,-0.3695752446467135,14.619799124635307,0.24078578359246494,3.0,88.85211000000001
437,14.754855005694292,-0.7966776926373662,14.653563094900052,0.21748758298782858,3.0,88.85211000000001
438,14.78861897595904,-1.1072034874419057,14.6873270651648,0.09126631096251385,3.0,88.85211000000001
439,14.822382946223787,-1.4071069800964087,14.721091035429547,-0.1139950004707622,3.0,88.85211000000001
440,14.856146916488534,-1.75217926083933,14.754855005694294,-0.3481918569245717,3.0,88.85211000000001
441,14.88991088675328,-2.0957062519519436,14.78861897595904,-0.5696866652375459,3.0,88.85211000000001
442,14.923674857018026,-2.3023065400511564,14.822382946223787,-0.7604822774181377,3.0,88.85211000000001
443,14.957438827282774,-2.2202346645812847,14.856146916488534,-0.914397024697598,3.0,88.85211000000001
444,14.991202797547519,-1.7724668352255362,14.88991088675328,-1.0118705385780458,3.0,88.85211000000001
445,15.024966767812266,-1.015059337001476,14.923674857018026,-1.0060920555819801,3.0,88.85211000000001
446,15.058730738077013,-0.1273571123759152,14.957438827282774,-0.8381297945269444,3.0,88.85211000000001
447,15.092494708341759,0.6623638526745792,14.991202797547519,-0.47718601671966643,3.0,88.85211000000001
448,15.126258678606506,1.1738929528434563,15.024966767812266,0.03968691370024135,3.0,88.85211000000001
449,15.160022648871253,1.3428712949741974,15.058730738077013,0.5995072177555332,3.0,88.85211000000001
450,15.193786619136,1.2309744780965144,15.09249470834176,1.0506358781935687,3.0,88.85211000000001
451,15.227550589400746,0.9840632801905758,15.126258678606506,1.269288533085895,3.0,88.85211000000001
452,15.261314559665493,0.7639546547534581,15.160022648871253,1.2178413374071275,3.0,88.85211000000001
453,15.29507852993024,0.6823387891789899,15.193786619136,0.9604028080306507,3.0,88.85211000000001
454,15.328842500194986,0.7611795808149098,15.227550589400746,0.6266029351547376,3.0,88.85211000000001
455,15.362606470459733,0.9364032947505532,15.261314559665493,0.34512598939277234,3.0,88.85211000000001
456,15.39637044072448,1.1047392433682002,15.29507852993024,0.18458955583692366,3.0,88.85211000000001
457,15.430134410989226,1.1875752482245387,15.328842500194986,0.13245652026920104,3.0,88.85211000000001
458,15.463898381253973,1.169194956079969,15.362606470459733,0.11894147244139902,3.0,88.85211000000001
459,15.49766235151872,1.08112769746165,15.39637044072448,0.06727590148447271,3.0,88.85211000000001
460,15.531426321783467,0.9456729471212935,15.430134410989227,-0.0612081898272969,3.0,88.85211000000001
461,15.565190292048213,0.7279534207836652,15.463898381253973,-0.25240954008627914,3.0,88.85211000000001
462,15.59895426231296,0.34443752037307046,15.49766235151872,-0.4596455979483229,3.0,88.85211000000001
463,15.632718232577707,-0.267375133233032,15.531426321783467,-0.640976946356465,3.0,88.85211000000001
464,15.666482202842452,-1.0664462127661465,15.565190292048213,-0.7860672811298215,3.0,88.85211000000001
465,15.7002461731072,-1.8793686580412392,15.59895426231296,-0.9133296111755579,3.0,88.85211000000001
466,15.734010143371947,-2.457928606070547,15.632718232577707,-1.039433053061933,3.0,88.85211000000001
467,15.767774113636692,-2.5961444407166088,15.666482202842452,-1.1440795355497002,3.0,88.85211000000001
468,15.80153808390144,-2.238257656289517,15.7002461731072,-1.1592889531320214,3.0,88.85211000000001
469,15.835302054166187,-1.5122878173960366,15.734010143371947,-0.9982677699656559,3.0,88.85211000000001
470,15.869066024430934,-0.6680377182262599,15.767774113636694,-0.6115865726017864,3.0,88.85211000000001
471,15.90282999469568,0.04394930342564406,15.80153808390144,-0.03581957818818834,3.0,88.85211000000001
472,15.936593964960426,0.4817809363163265,15.835302054166187,0.6007028591173899,3.0,88.85211000000001
473,15.970357935225174,0.6512046440566124,15.869066024430934,1.1257072785243927,3.0,88.85211000000001
474,16.00412190548992,0.6634957095529188,15.902829994695681,1.4006089192949978,3.0,88.85211000000001
475,16.037885875754668,0.6499906306698688,15.936593964960428,1.3838564954677384,3.0,88.85211000000001
476,16.07164984601941,0.6884528235302141,15.970357935225172,1.1440182894413982,3.0,88.85211000000001
477,16.10541381628416,0.7780920911086496,16.004121905489917,0.8173507367591264,3.0,88.85211000000001
478,16.139177786548906,0.8645397673259728,16.037885875754665,0.5366844975356146,3.0,88.85211000000001
479,16.172941756813653,0.8878930698237693,16.07164984601941,0.3718689074610164,3.0,88.85211000000001
480,16.2067057270784,0.8207510869297597,16.10541381628416,0.3109985047924158,3.0,88.85211000000001
481,16.240469697343148,0.6772102419140308,16.139177786548906,0.28597654757776103,3.0,88.85211000000001
482,16.27423366760789,0.49462268068308257,16.17294175681365,0.22207768102356268,3.0,88.85211000000001
483,16.30799763787264,0.30471261108741965,16.206705727078397,0.08164296393731285,3.0,88.85211000000001
484,16.341761608137386,0.11433114082792276,16.240469697343144,-0.1203733538455665,3.0,88.85211000000001
485,16.375525578402133,-0.09143604182630667,16.27423366760789,-0.3332479419640248,3.0,88.85211000000001
486,16.40928954866688,-0.3268175393665374,16.30799763787264,-0.5062000942241524,3.0,88.85211000000001
487,16.443053518931627,-0.5810023036452726,16.341761608137386,-0.6205012032254984,3.0,88.85211000000001
488,16.476817489196375,-0.8110323593162064,16.375525578402133,-0.6985629948937125,3.0,88.85211000000001
489,16.510581459461118,-0.95839385126427,16.409289548666877,-0.7836446482385008,3.0,88.85211000000001
490,16.544345429725865,-0.9788990904347721,16.443053518931624,-0.9010434867763042,3.0,88.85211000000001
491,16.578109399990613,-0.8665511296209354,16.47681748919637,-1.0246942649494988,3.0,88.85211000000001
492,16.61187337025536,-0.6562832550754307,16.510581459461118,-1.073843348843541,3.0,88.85211000000001
493,16.645637340520107,-0.4042027574958164,16.544345429725865,-0.9494669933445045,3.0,88.85211000000001
494,16.679401310784854,-0.15821633080068292,16.578109399990613,-0.5951206981020571,3.0,88.85211000000001
495,16.7131652810496,0.06222442350901935,16.61187337025536,-0.04674600882988417,3.0,88.85211000000001
496,16.746929251314345,0.26512203703391324,16.67940131078485,1.0588820403136843,2.0,59.23474
497,16.780693221579092,0.46631874255539535,16.67940131078485,1.0588820403136843,3.0,88.85211000000001
498,16.81445719184384,0.6655916346076116,16.713165281049598,1.299737524724354,3.0,88.85211000000001
499,16.848221162108587,0.8337074854613375,16.746929251314345,1.2482538899730526,3.0,88.85211000000001
500,16.881985132373334,0.918654360818636,16.780693221579092,0.9800892054587973,3.0,88.85211000000001
501,16.91574910263808,0.8701302331511387,16.81445719184384,0.6383918546915055,3.0,88.85211000000001
502,16.949513072902825,0.6719529639592775,16.848221162108583,0.35933374084865743,3.0,88.85211000000001
503,16.983277043167572,0.3646224968774172,16.88198513237333,0.21122551266202425,3.0,88.85211000000001
504,17.01704101343232,0.04094294436150688,16.915749102638078,0.17712342546696974,3.0,88.85211000000001
505,17.050804983697066,-0.19026253915993224,16.949513072902825,0.183526131765069,3.0,88.85211000000001
506,17.084568953961814,-0.2585851036938758,16.983277043167572,0.1523637353357579,3.0,88.85211000000001
507,17.11833292422656,-0.1758405528037932,17.01704101343232,0.04396890131500817,3.0,88.85211000000001
508,17.152096894491308,-0.03997421616921938,17.050804983697066,-0.13126112098211595,3.0,88.85211000000001
509,17.18586086475605,0.01108964081956432,17.08456895396181,-0.3330614744340792,3.0,88.85211000000001
510,17.2196248350208,-0.12488450994001545,17.118332924226557,-0.5242635079256831,3.0,88.85211000000001
511,17.253388805285546,-0.45169152199473905,17.152096894491304,-0.691452977925521,3.0,88.85211000000001
512,17.287152775550293,-0.8626050104536612,17.18586086475605,-0.8390115572568932,3.0,88.85211000000001
513,17.32091674581504,-1.1871284321770919,17.2196248350208,-0.9627254755471958,3.0,88.85211000000001
514,17.354680716079788,-1.2714789668499098,17.253388805285546,-1.0259496538251685,3.0,88.85211000000001
515,17.38844468634453,-1.0517274680648707,17.28715277555029,-0.9623196824960631,3.0,88.85211000000001
516,17.42220865660928,-0.5841356338335825,17.320916745815037,-0.7115207290958412,3.0,88.85211000000001
517,17.455972626874026,-0.017996739210873393,17.354680716079784,-0.268955564839219,3.0,88.85211000000001
518,17.489736597138773,0.4752276622506846,17.38844468634453,0.2853487903139456,3.0,88.85211000000001
519,17.52350056740352,0.7787155421375216,17.42220865660928,0.8047421893936877,3.0,88.85211000000001
520,17.557264537668267,0.8720892162098033,17.455972626874026,1.1374704394064201,3.0,88.85211000000001
521,17.591028507933014,0.8194099069115521,17.489736597138773,1.198048261452764,3.0,88.85211000000001
522,17.624792478197758,0.7172746387494799,17.523500567403516,1.006465628130898,3.0,88.85211000000001
523,17.658556448462505,0.6384723837729753,17.557264537668264,0.6731023330398529,3.0,88.85211000000001
524,17.692320418727252,0.6039001777642733,17.59102850793301,0.3404506364924885,3.0,88.85211000000001
525,17.726084388992,0.59171955216451,17.624792478197758,0.11632230415571869,3.0,88.85211000000001
526,17.759848359256747,0.5664729136118556,17.658556448462505,0.03367306099648679,3.0,88.85211000000001
527,17.793612329521494,0.5020952300323414,17.692320418727252,0.05254810006655826,3.0,88.85211000000001
528,17.82737629978624,0.3855969535470007,17.726084388992,0.094458130268012,3.0,88.85211000000001
529,17.861140270050985,0.20833120939996183,17.759848359256743,0.08442141966020383,3.0,88.85211000000001
530,17.894904240315732,-0.03858206034018864,17.79361232952149,-0.02153447027230468,3.0,88.85211000000001
531,17.92866821058048,-0.3549026179431485,17.827376299786238,-0.23012340330896305,3.0,88.85211000000001
532,17.962432180845227,-0.7136468756267792,17.861140270050985,-0.5170023630453888,3.0,88.85211000000001
533,17.996196151109974,-1.0515356971351537,17.894904240315732,-0.832575537479093,3.0,88.85211000000001
534,18.02996012137472,-1.281073248216311,17.92866821058048,-1.1035518733972247,3.0,88.85211000000001
535,18.063724091639465,-1.3235524642215692,17.962432180845223,-1.2390576012196906,3.0,88.85211000000001
536,18.09748806190421,-1.1468587961318595,17.99619615110997,-1.1533703681845728,3.0,88.85211000000001
537,18.13125203216896,-0.7860767659511767,18.029960121374717,-0.8054726579173875,3.0,88.85211000000001
538,18.165016002433706,-0.3331877751614729,18.063724091639465,-0.23651090571819233,3.0,88.85211000000001
539,18.198779972698453,0.10002883751859802,18.09748806190421,0.4231613941463745,3.0,88.85211000000001
540,18.2325439429632,0.4264260880138229,18.13125203216896,0.9933120653267625,3.0,88.85211000000001
541,18.266307913227948,0.6128590604340017,18.165016002433706,1.3165045241806508,3.0,88.85211000000001
542,18.30007188349269,0.6816624208432771,18.19877997269845,1.32631291729783,3.0,88.85211000000001
543,18.33383585375744,0.6866177486481587,18.232543942963197,1.0726493501865546,3.0,88.85211000000001
544,18.367599824022186,0.6790676480733573,18.266307913227944,0.6909450390484763,3.0,88.85211000000001
545,18.401363794286933,0.6837922772745239,18.30007188349269,0.3347460054443076,3.0,88.85211000000001
546,18.43512776455168,0.6950624905878753,18.33383585375744,0.1094916664992471,3.0,88.85211000000001
547,18.468891734816427,0.6876743569423863,18.367599824022186,0.039300844082449625,3.0,88.85211000000001
548,18.502655705081175,0.6298066317019785,18.401363794286933,0.07567048999934418,3.0,88.85211000000001
549,18.53641967534592,0.4905661216192654,18.435127764551677,0.13339193639218816,3.0,88.85211000000001
550,18.570183645610665,0.24617605540352963,18.468891734816424,0.12902424235105367,3.0,88.85211000000001
551,18.603947615875413,-0.10845731391233934,18.50265570508117,0.004860782526120183,3.0,88.85211000000001
552,18.63771158614016,-0.5442654843535402,18.53641967534592,-0.2619367240848809,3.0,88.85211000000001
553,18.671475556404907,-0.9896906584529958,18.570183645610665,-0.6540947611738798,3.0,88.85211000000001
554,18.705239526669654,-1.3411142325066305,18.603947615875413,-1.1057207521263517,3.0,88.85211000000001
555,18.739003496934398,-1.4938498288775057,18.637711586140156,-1.4983733710928182,3.0,88.85211000000001
556,18.772767467199145,-1.3827840483259735,18.671475556404904,-1.6803222047158954,3.0,88.85211000000001
557,18.806531437463892,-1.0142437674743692,18.70523952666965,-1.519547864853162,3.0,88.85211000000001
558,18.84029540772864,-0.4722778315220269,18.739003496934398,-0.9748208602493852,3.0,88.85211000000001
559,18.874059377993387,0.10667725846599813,18.772767467199145,-0.14426561342517055,3.0,88.85211000000001
560,18.907823348258134,0.5816441490772916,18.806531437463892,0.7486096828956349,3.0,88.85211000000001
561,18.94158731852288,0.8577724344994073,18.84029540772864,1.4384116927318815,3.0,88.85211000000001
562,18.975351288787625,0.9190637965326492,18.874059377993383,1.7325870898468625,3.0,88.85211000000001
563,19.009115259052372,0.8288970502823297,18.90782334825813,1.594872651619434,3.0,88.85211000000001
564,19.04287922931712,0.6962340571693778,18.941587318522878,1.151309873512531,3.0,88.85211000000001
565,19.076643199581866,0.6216788722505303,18.975351288787625,0.6185838261521953,3.0,88.85211000000001
566,19.110407169846614,0.6498853608550287,19.009115259052372,0.19797695696529044,3.0,88.85211000000001
567,19.14417114011136,0.7522246517370718,19.04287922931712,-0.007887398295339595,3.0,88.85211000000001
568,19.177935110376108,0.8460811853727599,19.076643199581866,-0.018413156449264587,3.0,88.85211000000001
569,19.21169908064085,0.8376983540752833,19.11040716984661,0.06140118085592475,3.0,88.85211000000001
570,19.2454630509056,0.6661900172571344,19.144171140111357,0.10656692831845771,3.0,88.85211000000001
571,19.279227021170346,0.32851662306072255,19.177935110376104,0.0285634450562878,3.0,88.85211000000001
572,19.312990991435093,-0.12413616233656162,19.21169908064085,-0.20003949348195288,3.0,88.85211000000001
573,19.34675496169984,-0.6119810421941119,19.2454630509056,-0.5506051564138844,3.0,88.85211000000001
574,19.380518931964588,-1.0552043697330635,19.279227021170346,-0.9551048717812809,3.0,88.85211000000001
575,19.41428290222933,-1.3893448385608136,19.31299099143509,-1.3193167946151834,3.0,88.85211000000001
576,19.44804687249408,-1.5672053810570352,19.346754961699837,-1.5332140248865684,3.0,88.85211000000001
577,19.481810842758826,-1.5590171881295478,19.380518931964584,-1.4915183019806313,3.0,88.85211000000001
578,19.515574813023573,-1.3590547635840058,19.41428290222933,-1.132480476146164,3.0,88.85211000000001
579,19.54933878328832,-0.9943067159384027,19.44804687249408,-0.4824490439039854,3.0,88.85211000000001
580,19.583102753553067,-0.5245778132291226,19.481810842758826,0.3242852586893342,3.0,88.85211000000001
581,19.616866723817814,-0.02934183453216554,19.515574813023573,1.0766479729660312,3.0,88.85211000000001
582,19.650630694082558,0.4139496816053794,19.549338783288317,1.5659083637097153,3.0,88.85211000000001
583,19.684394664347305,0.7510385741699495,19.583102753553064,1.6751911527468146,3.0,88.85211000000001
584,19.718158634612053,0.9622802053642421,19.61686672381781,1.4293230341237613,3.0,88.85211000000001
585,19.7519226048768,1.0582244961944538,19.650630694082558,0.9760829807348462,3.0,88.85211000000001
586,19.785686575141547,1.0624269471436334,19.65063069408256,0.9760829807347973,4.0,118.46948
587,19.819450545406294,0.9947221639271148,19.68439466434731,0.5103490374071059,4.0,118.46948
588,19.85321451567104,0.8671847637467203,19.7519226048768,0.051411707537228325,3.0,88.85211000000001
589,19.886978485935785,0.691451253687538,19.785686575141543,0.06422741181545609,3.0,88.85211000000001
590,19.920742456200532,0.4844043400429033,19.81945054540629,0.11999901443019893,3.0,88.85211000000001
591,19.95450642646528,0.26230770957588156,19.853214515671038,0.11696279153518503,3.0,88.85211000000001
592,19.988270396730027,0.02794828342379734,19.85321451567104,0.11696279153518471,4.0,118.46948
593,20.022034366994774,-0.2335439215813284,19.88697848593579,-0.00673663628478333,4.0,118.46948
594,20.05579833725952,-0.538336486792,19.920742456200536,-0.2633473873878692,4.0,118.46948
595,20.089562307524265,-0.8727416724921486,19.95450642646528,-0.624392079437003,4.0,118.46948
596,20.123326277789012,-1.1709684077244713,19.988270396730027,-1.0304685386044372,4.0,118.46948
597,20.15709024805376,-1.3271358087483498,20.022034366994774,-1.39444498963846,4.0,118.46948
598,20.190854218318506,-1.2458102497784058,20.05579833725952,-1.6069267504188602,4.0,118.46948
599,20.224618188583253,-0.903987908461529,20.089562307524268,-1.5595097161651175,4.0,118.46948
600,20.258382158848,-0.38162835604649503,20.123326277789015,-1.189763577773202,4.0,118.46948
601,20.292146129112748,0.16527992819889067,20.157090248053763,-0.5290899573250838,4.0,118.46948
602,20.32591009937749,0.5765558328682722,20.190854218318506,0.2802114151039692,4.0,118.46948
603,20.35967406964224,0.7625176327164568,20.224618188583253,1.0225845147034902,4.0,118.46948
604,20.393438039906986,0.7397736178304304,20.292146129112744,1.5856357236815395,3.0,88.85211000000001
605,20.427202010171733,0.6113440961568752,20.292146129112748,1.5856357236815493,4.0,118.46948
606,20.46096598043648,0.5053381311958997,20.325910099377495,1.3370217324631044,4.0,118.46948
607,20.494729950701227,0.5072590120557963,20.359674069642242,0.9004870462370721,4.0,118.46948
608,20.528493920965975,0.6222042220652425,20.39343803990699,0.46641645805389903,4.0,118.46948
609,20.56225789123072,0.7838161970289242,20.427202010171733,0.1743978142525209,4.0,118.46948
610,20.596021861495466,0.8984073650568876,20.46096598043648,0.06251236445791061,4.0,118.46948
611,20.629785831760213,0.8937890483761147,20.52849392096597,0.10742551611239005,3.0,88.85211000000001
612,20.66354980202496,0.7442814077225308,20.528493920965975,0.10742551611239358,4.0,118.46948
613,20.697313772289707,0.4628179455516012,20.562257891230722,0.07646100583616128,4.0,118.46948
614,20.731077742554454,0.07440949689965942,20.59602186149547,-0.05605136212105604,4.0,118.46948
615,20.764841712819198,-0.4024756460846145,20.629785831760213,-0.2796143076927161,4.0,118.46948
616,20.798605683083945,-0.9476754464190512,20.66354980202496,-0.560709648408603,4.0,118.46948
617,20.832369653348692,-1.5097123346788568,20.697313772289707,-0.8642792897333621,4.0,118.46948
618,20.86613362361344,-1.9841544837203442,20.731077742554454,-1.1544896759720071,4.0,118.46948
619,20.899897593878187,-2.23055658063978,20.7648417128192,-1.3786960224783202,4.0,118.46948
620,20.933661564142934,-2.1308994760098927,20.79860568308395,-1.4569097273834895,4.0,118.46948
621,20.96742553440768,-1.6570085706376962,20.832369653348696,-1.2994326209794131,4.0,118.46948
622,21.001189504672425,-0.9022110513062115,20.86613362361344,-0.8547858432898714,4.0,118.46948
623,21.034953474937172,-0.05363651006825202,20.899897593878187,-0.16187721403997915,4.0,118.46948
624,21.06871744520192,0.6818387249739505,20.933661564142934,0.6331741564569305,4.0,118.46948
625,21.102481415466666,1.1587347077513743,20.96742553440768,1.3193672531120975,4.0,118.46948
626,21.136245385731414,1.3403050228227402,21.00118950467243,1.708447335144099,4.0,118.46948
627,21.17000935599616,1.2925336416727504,21.034953474937176,1.721017181701373,4.0,118.46948
628,21.203773326260904,1.1350392240477665,21.06871744520192,1.421143593201932,4.0,118.46948
629,21.23753729652565,0.9793316561729877,21.102481415466666,0.9791887205846713,4.0,118.46948
630,21.2713012667904,0.8859172296919895,21.136245385731414,0.5846579187316778,4.0,118.46948
631,21.305065237055146,0.8562042053469221,21.17000935599616,0.3579327527477021,4.0,118.46948
632,21.338829207319893,0.8536886781990694,21.203773326260908,0.306739656774053,4.0,118.46948
633,21.37259317758464,0.8346124669896583,21.237537296525655,0.34467709771443444,4.0,118.46948
634,21.406357147849388,0.7686564747706416,21.271301266790402,0.35368954840013006,4.0,118.46948
635,21.44012111811413,0.6416425996702407,21.305065237055146,0.25052725132681114,4.0,118.46948
636,21.47388508837888,0.4451329207809016,21.338829207319893,0.020069919354798037,4.0,118.46948
637,21.507649058643626,0.16583358312477428,21.37259317758464,-0.2975437135636307,4.0,118.46948
638,21.541413028908373,-0.2118257986217657,21.406357147849388,-0.649022002491709,4.0,118.46948
639,21.57517699917312,-0.685276378127926,21.440121118114135,-1.0046434139698222,4.0,118.46948
640,21.608940969437867,-1.2060491933669,21.473885088378882,-1.3607752865936633,4.0,118.46948
641,21.642704939702615,-1.6668511897100926,21.50764905864363,-1.7056855583448867,4.0,118.46948
642,21.676468909967358,-1.9234161900911122,21.541413028908373,-1.9765777702661675,4.0,118.46948
643,21.710232880232105,-1.8526100529899245,21.57517699917312,-2.0491267072120762,4.0,118.46948
644,21.743996850496853,-1.4219198289738888,21.608940969437867,-1.7842053514595508,4.0,118.46948
645,21.7777608207616,-0.7281609459171129,21.642704939702615,-1.1161802737745752,4.0,118.46948
646,21.811524791026347,0.02751324983152117,21.67646890996736,-0.12896652745254686,4.0,118.46948
647,21.845288761291094,0.6245419679162211,21.71023288023211,0.9392059482190209,4.0,118.46948
648,21.879052731555838,0.9238507708367031,21.743996850496853,1.7823893755295421,4.0,118.46948
649,21.912816701820585,0.9269499524181354,21.7777608207616,2.164662513155483,4.0,118.46948
650,21.946580672085332,0.7585677771876159,21.811524791026347,2.0307009224456984,4.0,118.46948
651,21.98034464235008,0.5838938732011277,21.845288761291094,1.5244106683153666,4.0,118.46948
652,22.014108612614827,0.5120680135146681,21.87905273155584,0.9069651594262721,4.0,118.46948
653,22.047872582879574,0.5460110770600185,21.91281670182059,0.42473154121773565,4.0,118.46948
654,22.08163655314432,0.6062858446246489,21.946580672085336,0.20158079694790693,4.0,118.46948
655,22.115400523409065,0.6038504754662225,21.98034464235008,0.20796423137444428,4.0,118.46948
656,22.149164493673812,0.5026647644948837,22.014108612614827,0.30980792092252646,4.0,118.46948
657,22.18292846393856,0.32636237166413007,22.047872582879574,0.3563124391255612,4.0,118.46948
658,22.216692434203306,0.11372520942465306,22.08163655314432,0.2524183449536603,4.0,118.46948
659,22.250456404468054,-0.1287464958029404,22.11540052340907,-0.017311517489098194,4.0,118.46948
660,22.2842203747328,-0.43082746177563386,22.149164493673815,-0.40957086737235293,4.0,118.46948
661,22.317984344997548,-0.8149979423204795,22.182928463938563,-0.8574963448544475,4.0,118.46948
662,22.35174831526229,-1.2427747601278674,22.216692434203306,-1.289907196108499,4.0,118.46948
663,22.38551228552704,-1.5965250447320394,22.250456404468054,-1.6274759999548172,4.0,118.46948
664,22.419276255791786,-1.7178372320815662,22.2842203747328,-1.7748503106657985,4.0,118.46948
665,22.453040226056533,-1.4872964244736695,22.317984344997548,-1.6354723659500034,4.0,118.46948
666,22.48680419632128,-0.9022719626889626,22.351748315262295,-1.1574536803946929,4.0,118.46948
667,22.520568166586028,-0.10346809817696856,22.385512285527042,-0.3872625844344392,4.0,118.46948
668,22.55433213685077,0.674837000628168,22.419276255791786,0.5108947125187163,4.0,118.46948
669,22.58809610711552,1.210867639339584,22.453040226056533,1.2988128518451925,4.0,118.46948
670,22.621860077380266,1.3997449742535883,22.48680419632128,1.7595943482561607,4.0,118.46948
671,22.655624047645013,1.2957113737392143,22.520568166586028,1.794531125810264,4.0,118.46948
672,22.68938801790976,1.0691208561208057,22.554332136850775,1.465281990489062,4.0,118.46948
673,22.723151988174507,0.9065183977734149,22.588096107115522,0.9567249119156069,4.0,118.46948
674,22.756915958439254,0.9119155286105334,22.62186007738027,0.4827397803887667,4.0,118.46948
675,22.790679928703998,1.0597172160864388,22.655624047645013,0.18803614237364977,4.0,118.46948
676,22.824443898968745,1.216952608273504,22.68938801790976,0.09679891660453639,4.0,118.46948
677,22.858207869233492,1.2175134100770357,22.723151988174507,0.1281686623512579,4.0,118.46948
678,22.89197183949824,0.9492528159628958,22.756915958439254,0.1597372602006249,4.0,118.46948
679,22.925735809762987,0.4114057841772581,22.790679928704,0.09653352392820817,4.0,118.46948
680,22.959499780027734,-0.28487099383789827,22.82444389896875,-0.09280470597473373,4.0,118.46948
681,22.99326375029248,-0.9710335279839679,22.858207869233496,-0.3840712127642307,4.0,118.46948
682,23.027027720557225,-1.4991488585004644,22.89197183949824,-0.7310326587575868,4.0,118.46948
683,23.060791690821972,-1.7988100958980342,22.925735809762987,-1.0925386034980733,4.0,118.46948
684,23.09455566108672,-1.8831854817198774,22.959499780027734,-1.4323428816199202,4.0,118.46948
685,23.128319631351467,-1.8086033602408975,22.99326375029248,-1.6969977295348648,4.0,118.46948
686,23.162083601616214,-1.6218768662074046,23.02702772055723,-1.7993127396386885,4.0,118.46948
687,23.19584757188096,-1.3342422815561958,23.060791690821976,-1.6356098292098824,4.0,118.46948
688,23.229611542145705,-0.9373764698827335,23.09455566108672,-1.1407775273159522,4.0,118.46948
689,23.26337551241045,-0.44238285505787134,23.128319631351467,-0.35119418519950124,4.0,118.46948
690,23.2971394826752,0.09532386766172166,23.162083601616214,0.5716511802595818,4.0,118.46948
691,23.330903452939946,0.5875989970473459,23.19584757188096,1.3865340133890167,4.0,118.46948
692,23.364667423204693,0.9514368496368605,23.229611542145708,1.8723961464866636,4.0,118.46948
693,23.39843139346944,1.1438592096485538,23.263375512410455,1.928870928962787,4.0,118.46948
694,23.432195363734188,1.1725665444872568,23.297139482675203,1.6189553603258122,4.0,118.46948
695,23.46595933399893,1.082406402038776,23.330903452939946,1.1295147846509208,4.0,118.46948
696,23.49972330426368,0.9317093819171505,23.364667423204693,0.6740250583134024,4.0,118.46948
697,23.533487274528426,0.7719129311063956,23.432195363734184,0.30563640102633693,3.0,88.85211000000001
698,23.567251244793173,0.6355758780835074,23.46595933399893,0.32700716317053635,3.0,88.85211000000001
699,23.60101521505792,0.5314485644075111,23.49972330426368,0.3372590763441524,3.0,88.85211000000001
700,23.634779185322667,0.4441387879277554,23.499723304263682,0.33725907634414326,4.0,118.46948
701,23.668543155587415,0.3382461520266274,23.53348727452843,0.2504033427735913,4.0,118.46948
702,23.70230712585216,0.1694539436987047,23.567251244793173,0.048047163886499517,4.0,118.46948
703,23.736071096116905,-0.09541046067399414,23.60101521505792,-0.23480450478712994,4.0,118.46948
704,23.769835066381653,-0.453415896303863,23.634779185322667,-0.5515520696925299,4.0,118.46948
705,23.8035990366464,-0.8487003581132918,23.668543155587415,-0.8778645298953313,4.0,118.46948
706,23.837363006911147,-1.1795574340451553,23.702307125852162,-1.2111078273509281,4.0,118.46948
707,23.871126977175894,-1.3346575390428828,23.73607109611691,-1.5361542810862332,4.0,118.46948
708,23.904890947440638,-1.2443581085108786,23.769835066381653,-1.7866964018508922,4.0,118.46948
709,23.938654917705385,-0.9192505110010917,23.8035990366464,-1.8409301813646546,4.0,118.46948
710,23.972418887970132,-0.4515572302086594,23.837363006911147,-1.5713584460417112,4.0,118.46948
711,24.00618285823488,0.0244563629941033,23.871126977175894,-0.9289438794192107,4.0,118.46948
712,24.039946828499627,0.39237771120756765,23.90489094744064,-0.008326433901425154,4.0,118.46948
713,24.073710798764374,0.6015782462808563,23.93865491770539,0.9585403316410352,4.0,118.46948
714,24.10747476902912,0.6788251321400358,23.972418887970136,1.6917929198568686,4.0,118.46948
715,24.141238739293865,0.6994413325598577,24.00618285823488,1.9917119943710218,4.0,118.46948
716,24.175002709558612,0.7351522599251265,24.039946828499627,1.8315720713267079,4.0,118.46948
717,24.20876667982336,0.8087595386037002,24.073710798764374,1.3611454037132302,4.0,118.46948
718,24.242530650088106,0.8827759054277693,24.10747476902912,0.8214080390106134,4.0,118.46948
719,24.276294620352854,0.8888357625362754,24.14123873929387,0.4224632403639158,4.0,118.46948
720,24.3100585906176,0.7779054468145706,24.175002709558616,0.2528553782269216,4.0,118.46948
721,24.343822560882344,0.5562920669255381,24.20876667982336,0.2635033464236643,4.0,118.46948
722,24.37758653114709,0.2816312809548315,24.242530650088106,0.32294420658016965,4.0,118.46948
723,24.41135050141184,0.021469128344584358,24.276294620352854,0.30193500799213174,4.0,118.46948
724,24.445114471676586,-0.1956366653057763,24.3100585906176,0.1361407303959057,4.0,118.46948
725,24.478878441941333,-0.39990146674937654,24.343822560882348,-0.16239596821609195,4.0,118.46948
726,24.51264241220608,-0.6531068698369736,24.377586531147095,-0.5379048831072516,4.0,118.46948
727,24.546406382470828,-0.9892922580394239,24.411350501411842,-0.9337887054199638,4.0,118.46948
728,24.58017035273557,-1.3638319190774306,24.445114471676586,-1.3111014172287563,4.0,118.46948
729,24.61393432300032,-1.650723836698149,24.478878441941333,-1.6321815407419717,4.0,118.46948
730,24.647698293265066,-1.69865735856171,24.51264241220608,-1.8307808944410828,4.0,118.46948
731,24.681462263529813,-1.416774859096462,24.546406382470828,-1.8057179746827923,4.0,118.46948
732,24.71522623379456,-0.8378138169975688,24.580170352735575,-1.4606157067146937,4.0,118.46948
733,24.748990204059307,-0.1168665386941393,24.613934323000322,-0.7749193751400657,4.0,118.46948
734,24.782754174324054,0.5367830460192892,24.64769829326507,0.1418812036698296,4.0,118.46948
735,24.816518144588798,0.9554430112655912,24.681462263529813,1.0613151651449058,4.0,118.46948
736,24.850282114853545,1.0817171736679032,24.71522623379456,1.7221013069360323,4.0,118.46948
737,24.884046085118293,0.9756651558783143,24.748990204059307,1.9490162074012651,4.0,118.46948
738,24.91781005538304,0.7648495567947616,24.782754174324054,1.7353660089114535,4.0,118.46948
739,24.951574025647787,0.5723690225023953,24.8165181445888,1.239690330965627,4.0,118.46948
740,24.985337995912534,0.46416659829294227,24.85028211485355,0.6995692251333845,4.0,118.46948
741,25.019101966177278,0.4392140461524435,24.884046085118293,0.31399527296749236,4.0,118.46948
742,25.052865936442025,0.4569261378214698,24.91781005538304,0.1599420257993129,4.0,118.46948
743,25.086629906706772,0.47370279227079964,24.951574025647787,0.1826727349683279,4.0,118.46948
744,25.12039387697152,0.4604430533152786,24.985337995912534,0.2528006882050879,4.0,118.46948
745,25.154157847236267,0.39506897768725224,25.01910196617728,0.24672152003440517,4.0,118.46948
746,25.187921817501014,0.24901306170735024,25.05286593644203,0.10211035121194174,4.0,118.46948
747,25.22168578776576,-0.008317172031429457,25.086629906706776,-0.17434848662345226,4.0,118.46948
748,25.255449758030505,-0.3817991859730124,25.12039387697152,-0.5348384094993669,4.0,118.46948
749,25.289213728295252,-0.8190597149120642,25.154157847236267,-0.9219334416407033,4.0,118.46948
750,25.32297769856,-1.2043076144161429,25.187921817501014,-1.2786891134911693,4.0,118.46948
751,25.356741668824746,-1.3940440518141133,25.22168578776576,-1.5377234229417969,4.0,118.46948
752,25.390505639089493,-1.2841358482112408,25.255449758030508,-1.6129157004719294,4.0,118.46948
753,25.42426960935424,-0.8726195021581286,25.289213728295255,-1.4189796684965619,4.0,118.46948
754,25.458033579618988,-0.27710657382578496,25.322977698560003,-0.9207565852489332,4.0,118.46948
755,25.49179754988373,0.31168481383221824,25.356741668824746,-0.18264864767956734,4.0,118.46948
756,25.52556152014848,0.7193617442530326,25.390505639089493,0.6240266298988049,4.0,118.46948
757,25.559325490413226,0.8700938253488951,25.42426960935424,1.2767124286859766,4.0,118.46948
758,25.593089460677973,0.8139448264291964,25.458033579618988,1.5980278983471357,4.0,118.46948
759,25.62685343094272,0.684636608096482,25.491797549883735,1.5380241801715264,4.0,118.46948
760,25.660617401207467,0.6147680805182272,25.525561520148482,1.1922949088515198,4.0,118.46948
761,25.69438137147221,0.6597233746445637,25.559325490413226,0.7458013612690786,4.0,118.46948
762,25.72814534173696,0.7743417399090478,25.593089460677973,0.377460608797222,4.0,118.46948
763,25.761909312001706,0.8526360669427969,25.62685343094272,0.18022307119603567,4.0,118.46948
764,25.795673282266453,0.8010271817873574,25.660617401207467,0.13642660434403184,4.0,118.46948
765,25.8294372525312,0.5954699468101765,25.694381371472215,0.15274332995024395,4.0,118.46948
766,25.863201222795947,0.286478667011892,25.728145341736962,0.12615879619564815,4.0,118.46948
767,25.896965193060694,-0.04588848008405801,25.76190931200171,-0.00015747706635579848,4.0,118.46948
768,25.930729163325438,-0.3498380015624392,25.795673282266453,-0.21994645724456105,4.0,118.46948
769,25.964493133590185,-0.6284404100327203,25.8294372525312,-0.4870618535340752,4.0,118.46948
770,25.998257103854932,-0.917019208008701,25.863201222795947,-0.7545996289353419,4.0,118.46948
771,26.03202107411968,-1.2315066756716877,25.896965193060694,-0.9985704655718471,4.0,118.46948
772,26.065785044384427,-1.52953416725116,25.93072916332544,-1.2096383275109739,4.0,118.46948
773,26.099549014649174,-1.7162385906837703,25.96449313359019,-1.363067932517485,4.0,118.46948
774,26.13331298491392,-1.6939241704857917,25.998257103854936,-1.3967289655760666,4.0,118.46948
775,26.167076955178665,-1.4226464209604293,26.03202107411968,-1.2246487123659202,4.0,118.46948
776,26.200840925443412,-0.950293853848184,26.065785044384427,-0.7882672587225983,4.0,118.46948
777,26.23460489570816,-0.391976643866281,26.099549014649174,-0.1155000990856794,4.0,118.46948
778,26.268368865972906,0.12629498142620083,26.13331298491392,0.6566260294261879,4.0,118.46948
779,26.302132836237654,0.5221662257858696,26.16707695517867,1.3220892518323195,4.0,118.46948
780,26.3358968065024,0.7783009797878703,26.200840925443416,1.6943348592977872,4.0,118.46948
781,26.369660776767144,0.9257944608805828,26.23460489570816,1.6940422158495434,4.0,118.46948
782,26.40342474703189,1.0095145062620425,26.268368865972906,1.3845176761567415,4.0,118.46948
783,26.43718871729664,1.0607112620474555,26.302132836237654,0.9344776015984344,4.0,118.46948
784,26.470952687561386,1.0888716109312109,26.3358968065024,0.5311876006140209,4.0,118.46948
785,26.504716657826133,1.08802936552036,26.369660776767148,0.293611884037661,4.0,118.46948
786,26.53848062809088,1.0473497724083374,26.403424747031895,0.23080491743400577,4.0,118.46948
787,26.572244598355628,0.9601407473526901,26.437188717296642,0.26118918259920504,4.0,118.46948
788,26.60600856862037,0.8282532664951642,26.470952687561386,0.273324304738279,4.0,118.46948
789,26.63977253888512,0.6589635029724402,26.504716657826133,0.18876646306152234,4.0,118.46948
790,26.673536509149866,0.4558106166634686,26.53848062809088,-0.007632509338761508,4.0,118.46948
791,26.707300479414613,0.2115228224841067,26.572244598355628,-0.2804170981567908,4.0,118.46948
792,26.74106444967936,-0.08841399330204398,26.606008568620375,-0.5818930634590987,4.0,118.46948
793,26.774828419944107,-0.44959794302754164,26.639772538885122,-0.8843986838651245,4.0,118.46948
794,26.808592390208855,-0.8465216248592241,26.67353650914987,-1.1819002772189435,4.0,118.46948
795,26.842356360473598,-1.2086600411807698,26.707300479414613,-1.4605438337854417,4.0,118.46948
796,26.876120330738345,-1.4316048257234457,26.74106444967936,-1.6636888989603436,4.0,118.46948
797,26.909884301003093,-1.4187276728139349,26.774828419944107,-1.6864942296956213,4.0,118.46948
798,26.94364827126784,-1.1354317859708984,26.808592390208855,-1.418653475971221,4.0,118.46948
799,26.977412241532587,-0.6414459895095723,26.8423563604736,-0.8187149938412502,4.0,118.46948
800,27.011176211797334,-0.07547571177945843,26.87612033073835,0.026993741693522064,4.0,118.46948
801,27.044940182062078,0.40282097212485285,26.909884301003093,0.9083125883731853,4.0,118.46948
802,27.078704152326825,0.6803758090823702,26.94364827126784,1.56990321693004,4.0,118.46948
803,27.112468122591572,0.7307360543374763,26.977412241532587,1.8268043328122536,4.0,118.46948
804,27.14623209285632,0.6103586090706102,27.011176211797334,1.6512934037466143,4.0,118.46948
805,27.179996063121067,0.4217830070761541,27.04494018206208,1.1805650457426835,4.0,118.46948
806,27.213760033385814,0.2674133607647281,27.07870415232683,0.6422174547022971,4.0,118.46948
807,27.24752400365056,0.21292693412707525,27.112468122591576,0.24189035868589925,4.0,118.46948
808,27.281287973915305,0.268171060133615,27.889039438680744,0.050083291304740235,-18.0,-533.11266
809,27.315051944180052,0.3867633500468004,27.92280340894549,0.07777172870002996,-18.0,-533.11266
810,27.3488159144448,0.48319484504689164,27.179996063121067,0.10544340333663003,5.0,148.08685
811,27.382579884709546,0.4633744461947246,27.213760033385814,0.21035320524312903,5.0,148.08685
812,27.416343854974293,0.26091439427999835,27.24752400365056,0.25789325277971437,5.0,148.08685
813,27.45010782523904,-0.13146447075091763,27.28128797391531,0.16867563904743277,5.0,148.08685
814,27.483871795503788,-0.6477836407559605,27.315051944180055,-0.06551248459415906,5.0,148.08685
815,27.51763576576853,-1.1619509163134225,27.3488159144448,-0.40196829466470907,5.0,148.08685
816,27.55139973603328,-1.52809210547065,27.382579884709546,-0.7789583322034296,5.0,148.08685
817,27.585163706298026,-1.6335098107151846,27.416343854974293,-1.132693204938726,5.0,148.08685
818,27.618927676562773,-1.441095357887272,27.45010782523904,-1.3938334414793347,5.0,148.08685
819,27.65269164682752,-1.002165500803109,27.483871795503788,-1.4811271350064457,5.0,148.08685
820,27.686455617092268,-0.43520973598673,27.517635765768535,-1.3157466450681787,5.0,148.08685
821,27.72021958735701,0.11821543624508644,27.55139973603328,-0.8622884598518786,5.0,148.08685
822,27.75398355762176,0.5411821338574357,27.889039438680744,0.050083291304740235,-4.0,-118.46948
823,27.787747527886506,0.7757681611062551,27.618927676562773,0.5958023692920427,5.0,148.08685
824,27.821511498151253,0.8351495472418475,27.65269164682752,1.2379697784810113,5.0,148.08685
825,27.855275468416,0.7912729320106214,27.686455617092268,1.574579606459147,5.0,148.08685
826,27.889039438680747,0.7409437941378616,27.720219587357015,1.5398527933541353,5.0,148.08685
827,27.922803408945494,0.7608322729734601,27.753983557621762,1.207774729482625,5.0,148.08685
828,27.956567379210238,0.8714814926563634,27.787747527886506,0.7497775551711618,5.0,148.08685
829,27.990331349474985,1.0311015524443155,28.12538723053397,-1.028599716790008,-4.0,-118.46948
830,28.024095319739732,1.163530545052633,28.159151200798718,-1.3065641244352464,-4.0,-118.46948
831,28.05785929000448,1.2010139849667463,28.192915171063465,-1.5027773471415922,-4.0,-118.46948
832,28.091623260269227,1.112868175863396,28.19291517106347,-1.5027773471415955,-3.0,-88.85211000000001
833,28.125387230533974,0.9046102466104841,27.95656737921024,0.09112221956092866,5.0,148.08685
834,28.159151200798718,0.5957140268018283,27.990331349474985,0.016469104836126933,5.0,148.08685
835,28.192915171063465,0.1985262363426538,28.024095319739732,-0.1636478074234338,5.0,148.08685
836,28.226679141328212,-0.2827667271387773,28.05785929000448,-0.4232690372462153,5.0,148.08685
837,28.26044311159296,-0.8315867794319827,28.091623260269227,-0.7228841910474588,5.0,148.08685
838,28.294207081857706,-1.3935266960753114,28.125387230533974,-1.0285997167900403,5.0,148.08685
839,28.327971052122454,-1.8688145662128284,28.15915120079872,-1.306564124435267,5.0,148.08685
840,28.3617350223872,-2.135480255290739,28.496790903446186,1.3570821958189148,-4.0,-118.46948
841,28.395498992651945,-2.096844017495086,28.53055487371093,0.9375451432481036,-4.0,-118.46948
842,28.42926296291669,-1.73020267724069,28.564318843975677,0.5780809174387029,-4.0,-118.46948
843,28.46302693318144,-1.1092684788985108,28.598082814240424,0.36923898022505497,-4.0,-118.46948
844,28.496790903446186,-0.38489037347853444,28.63184678450517,0.29989281786613564,-4.0,-118.46948
845,28.530554873710933,0.2691075400588649,28.66561075476992,0.28796335659606564,-4.0,-118.46948
846,28.56431884397568,0.719377602066659,28.699374725034666,0.24069151319871443,-4.0,-118.46948
847,28.598082814240428,0.916621171881413,28.429262962916695,1.7020556705132368,5.0,148.08685
848,28.63184678450517,0.9019109426088244,28.46302693318144,1.6688660836623703,5.0,148.08685
849,28.66561075476992,0.7765358530700298,28.496790903446186,1.3570821958189148,5.0,148.08685
850,28.699374725034666,0.6511352172451742,28.530554873710933,0.9375451432480594,5.0,148.08685
851,28.733138695299413,0.5970032018805543,28.56431884397568,0.5780809174386651,5.0,148.08685
852,28.76690266556416,0.6207864900809811,28.868194576358402,-0.9043558612979758,-3.0,-88.85211000000001
853,28.800666635828907,0.6734059741480993,28.90195854662315,-1.1695806037425498,-3.0,-88.85211000000001
854,28.83443060609365,0.6867106797806156,28.935722516887893,-1.4199561099892304,-3.0,-88.85211000000001
855,28.8681945763584,0.614995259990699,28.96948648715264,-1.5906357206413984,-3.0,-88.85211000000001
856,28.901958546623145,0.4553484374268735,29.003250457417387,-1.5732032683290087,-3.0,-88.85211000000001
857,28.935722516887893,0.2363301995993109,28.76690266556416,-0.11083424076267186,5.0,148.08685
858,28.96948648715264,-0.01127567304902133,28.800666635828907,-0.3715123921676358,5.0,148.08685
859,29.003250457417387,-0.27461400792314183,28.834430606093655,-0.6396885110115842,5.0,148.08685
860,29.037014427682134,-0.5525473469965848,28.868194576358402,-0.9043558612979758,5.0,148.08685
861,29.070778397946878,-0.8302324787022267,28.901958546623145,-1.1695806037425234,5.0,148.08685
862,29.104542368211625,-1.0593520786406838,28.935722516887893,-1.4199561099892304,5.0,148.08685
863,29.138306338476372,-1.1657746044702881,29.239598249270614,1.5573995889632117,-3.0,-88.85211000000001
864,29.17207030874112,-1.0858562635369409,29.27336221953536,1.1363031325647779,-3.0,-88.85211000000001
865,29.205834279005867,-0.8096881380734678,29.30712618980011,0.6882117316505294,-3.0,-88.85211000000001
866,29.239598249270614,-0.400839945193604,29.340890160064856,0.3760346787793761,-3.0,-88.85211000000001
867,29.27336221953536,0.024668352636194043,29.374654130329603,0.25313679152995827,-3.0,-88.85211000000001
868,29.307126189800105,0.3506874540147693,29.408418100594346,0.2610874044999863,-3.0,-88.85211000000001
869,29.340890160064852,0.5146368489839442,29.442182070859094,0.283555830879058,-3.0,-88.85211000000001
870,29.3746541303296,0.5326008843823383,29.47594604112384,0.21868443374993826,-3.0,-88.85211000000001
871,29.408418100594346,0.48341889640270297,29.509710011388588,0.02827012033870725,-3.0,-88.85211000000001
872,29.442182070859094,0.4619113999649502,29.27336221953536,1.1363031325647779,5.0,148.08685
873,29.47594604112384,0.5272553674701188,29.577237951918082,-0.5757113004513794,-3.0,-88.85211000000001
874,29.509710011388584,0.6741207053589685,29.611001922182826,-0.868166961819521,-3.0,-88.85211000000001
875,29.54347398165333,0.840165829875545,29.644765892447573,-1.1086093653645128,-3.0,-88.85211000000001
876,29.57723795191808,0.942291974364024,29.67852986271232,-1.2902644246715549,-3.0,-88.85211000000001
877,29.611001922182826,0.9191797106333482,29.712293832977068,-1.3963963648,-3.0,-88.85211000000001
878,29.644765892447573,0.7569894685481134,29.746057803241815,-1.378597762634354,-3.0,-88.85211000000001
879,29.67852986271232,0.4867842720227345,29.779821773506562,-1.1677896861521715,-3.0,-88.85211000000001
880,29.712293832977068,0.15868483729594632,29.81358574377131,-0.7193564490417355,-3.0,-88.85211000000001
881,29.74605780324181,-0.1891316163719844,29.847349714036053,-0.06547065819316439,-3.0,-88.85211000000001
882,29.77982177350656,-0.5449097460474177,29.8811136843008,0.6651447306787163,-3.0,-88.85211000000001
883,29.813585743771306,-0.909140437954219,29.914877654565547,1.2839511132758772,-3.0,-88.85211000000001
884,29.847349714036053,-1.2604968443917814,29.948641624830294,1.6229539831053672,-3.0,-88.85211000000001
885,29.8811136843008,-1.5307096439784882,29.98240559509504,1.6138491153924996,-3.0,-88.85211000000001
886,29.914877654565547,-1.6177653044256395,30.01616956535979,1.3184246120005347,-3.0,-88.85211000000001
887,29.948641624830294,-1.4404023931548324,30.049933535624536,0.8921051799846075,-3.0,-88.85211000000001
888,29.982405595095038,-1.0006260329454748,30.08369750588928,0.503259438884797,-3.0,-88.85211000000001
889,30.016169565359785,-0.40631758158866665,30.117461476154027,0.2554494789437195,-3.0,-88.85211000000001
890,30.049933535624533,0.16998211750762432,30.151225446418774,0.15388899323930866,-3.0,-88.85211000000001
891,30.08369750588928,0.5740130215917691,30.18498941668352,0.12753902816107124,-3.0,-88.85211000000001
892,30.117461476154027,0.7418371321208348,30.21875338694827,0.08517845709910758,-3.0,-88.85211000000001
893,30.151225446418774,0.7176020482932833,30.252517357213016,-0.032134765324690145,-3.0,-88.85211000000001
894,30.184989416683518,0.612880566236043,30.28628132747776,-0.23085055128450538,-3.0,-88.85211000000001
895,30.218753386948265,0.5397601007127661,30.320045297742507,-0.48032913803185845,-3.0,-88.85211000000001
896,30.252517357213012,0.5577601528988212,30.353809268007254,-0.7435304439076083,-3.0,-88.85211000000001
897,30.28628132747776,0.6567802078815759,30.387573238272,-0.9958241531946289,-3.0,-88.85211000000001
898,30.320045297742507,0.7753346562723816,30.421337208536748,-1.2181063910178425,-3.0,-88.85211000000001
899,30.353809268007254,0.8386852748816844,30.455101178801495,-1.3738148202310287,-3.0,-88.85211000000001
900,30.387573238272,0.7953437413836699,30.488865149066243,-1.39579625097052,-3.0,-88.85211000000001
901,30.421337208536745,0.6331140502716606,30.522629119330986,-1.2050956316825512,-3.0,-88.85211000000001
902,30.455101178801492,0.36984015202113707,30.252517357213012,-0.03213476532466924,6.0,177.70422000000002
903,30.48886514906624,0.032576057769786074,30.28628132747776,-0.23085055128450538,6.0,177.70422000000002
904,30.522629119330986,-0.35348692792392944,30.320045297742507,-0.48032913803185845,6.0,177.70422000000002
905,30.556393089595733,-0.7565153683720162,30.353809268007254,-0.7435304439076083,6.0,177.70422000000002
906,30.59015705986048,-1.1214820366153393,30.387573238272,-0.9958241531946289,6.0,177.70422000000002
907,30.623921030125228,-1.3687452345377185,30.421337208536748,-1.2181063910178425,6.0,177.70422000000002
908,30.65768500038997,-1.4207148089225443,30.455101178801492,-1.3738148202310265,6.0,177.70422000000002
909,30.69144897065472,-1.2448666012524756,30.48886514906624,-1.39579625097054,6.0,177.70422000000002
910,30.725212940919466,-0.8831497855430674,30.522629119330986,-1.2050956316825512,6.0,177.70422000000002
911,30.758976911184213,-0.4419181559495219,30.556393089595733,-0.7598828546745365,6.0,177.70422000000002
912,30.79274088144896,-0.04190221403759455,30.894032792243202,0.27604617780648866,-3.0,-88.85211000000001
913,30.826504851713707,0.24230642303321226,30.623921030125228,0.6176959064755035,6.0,177.70422000000002
914,30.86026882197845,0.4126888333608572,30.65768500038997,1.2146559342055694,6.0,177.70422000000002
915,30.8940327922432,0.5275165217652094,30.69144897065472,1.5259830771222895,6.0,177.70422000000002
916,30.927796762507946,0.646811638667528,30.725212940919466,1.4994598301181898,6.0,177.70422000000002
917,30.961560732772693,0.7844440795563986,30.758976911184213,1.211511996155544,6.0,177.70422000000002
918,30.99532470303744,0.900761707304593,30.79274088144896,0.8227449131916311,6.0,177.70422000000002
919,31.029088673302187,0.9379795179789486,30.826504851713707,0.49503715063974274,6.0,177.70422000000002
920,31.062852643566934,0.8688508334369769,31.164144554361176,-0.8433914081265682,-3.0,-88.85211000000001
921,31.096616613831678,0.7208330452351057,30.8940327922432,0.2760461778064876,6.0,177.70422000000002
922,31.130380584096425,0.5581661563737208,30.927796762507946,0.2861776849756899,6.0,177.70422000000002
923,31.164144554361172,0.4362676209346011,30.961560732772693,0.24949310416497825,6.0,177.70422000000002
924,31.19790852462592,0.36171725852893855,30.99532470303744,0.11344700217358944,6.0,177.70422000000002
925,31.231672494890667,0.2847156908742557,31.029088673302187,-0.10725640288549655,6.0,177.70422000000002
926,31.265436465155414,0.12800497508789924,31.062852643566934,-0.351902202661928,6.0,177.70422000000002
927,31.299200435420158,-0.16540902232398502,31.096616613831678,-0.5604036230250917,6.0,177.70422000000002
928,31.332964405684905,-0.5919777788554974,31.130380584096425,-0.7140055597144263,6.0,177.70422000000002
929,31.366728375949652,-1.0747300739281687,31.164144554361172,-0.843391408126552,6.0,177.70422000000002
930,31.4004923462144,-1.483270016978775,31.19790852462592,-0.9975455224171349,6.0,177.70422000000002
931,31.434256316479146,-1.6795233640862084,31.231672494890667,-1.191799768017493,6.0,177.70422000000002
932,31.468020286743894,-1.5746490822193135,31.265436465155414,-1.3699041538335628,6.0,177.70422000000002
933,31.50178425700864,-1.17559063455107,31.29920043542016,-1.4114121526898358,6.0,177.70422000000002
934,31.535548227273384,-0.5951321369391365,31.332964405684905,-1.1904072928378286,6.0,177.70422000000002
935,31.56931219753813,-0.010146882512469027,31.366728375949652,-0.6569410925226746,6.0,177.70422000000002
936,31.60307616780288,0.41734772866608766,31.4004923462144,0.10894314065850304,6.0,177.70422000000002
937,31.636840138067626,0.6136777580777693,31.434256316479146,0.9106771700523508,6.0,177.70422000000002
938,31.670604108332373,0.618665366308745,31.468020286743894,1.5167583374259304,6.0,177.70422000000002
939,31.70436807859712,0.5493337451984206,31.50178425700864,1.7673774828508877,6.0,177.70422000000002
940,31.738132048861868,0.5266105844234645,31.535548227273388,1.6456586666091573,6.0,177.70422000000002
941,31.77189601912661,0.6093437089985232,31.56931219753813,1.2744462953287083,6.0,177.70422000000002
942,31.80565998939136,0.7711716543499766,31.60307616780288,0.8443521523515524,6.0,177.70422000000002
943,31.839423959656106,0.9270617825887497,31.940715870450347,-1.0071547571549824,-3.0,-88.85211000000001
944,31.873187929920853,0.9878165857225792,31.974479840715095,-1.1973852495809865,-3.0,-88.85211000000001
945,31.9069519001856,0.9087362324857394,31.70436807859712,0.319929784302698,6.0,177.70422000000002
946,31.940715870450347,0.7062818285594281,31.738132048861868,0.30548461344132194,6.0,177.70422000000002
947,31.97447984071509,0.4374829377032865,31.77189601912661,0.2189845220776619,6.0,177.70422000000002
948,32.00824381097984,0.15947822760700875,31.805659989391362,0.0247660146474152,6.0,177.70422000000002
949,32.042007781244585,-0.10259187794349887,31.839423959656106,-0.24764761297563834,6.0,177.70422000000002
950,32.075771751509336,-0.3596551395178716,31.873187929920856,-0.5363518247043628,6.0,177.70422000000002
951,32.10953572177408,-0.6356532388070247,31.9069519001856,-0.7927111292731844,6.0,177.70422000000002
952,32.14329969203882,-0.9348825788751162,31.940715870450344,-1.0071547571549597,6.0,177.70422000000002
953,32.177063662303574,-1.2208749891716697,31.974479840715095,-1.1973852495809865,6.0,177.70422000000002
954,32.21082763256832,-1.4204099913324004,32.008243810979835,-1.368288772051379,6.0,177.70422000000002
955,32.24459160283307,-1.4527441167626138,32.042007781244585,-1.4751973670332714,6.0,177.70422000000002
956,32.27835557309781,-1.270240232652335,32.07577175150933,-1.4242000054226611,6.0,177.70422000000002
957,32.312119543362556,-0.8887712718584504,32.10953572177407,-1.120394766646063,6.0,177.70422000000002
958,32.34588351362731,-0.38952645959978177,32.14329969203882,-0.5396334773182405,6.0,177.70422000000002
959,32.37964748389205,0.111791979020857,32.17706366230357,0.22424054416425054,6.0,177.70422000000002
960,32.4134114541568,0.5135500022286648,32.21082763256832,0.9761181004616749,6.0,177.70422000000002
961,32.447175424421545,0.7676699884248878,32.54846733521578,0.1836501345572483,-3.0,-88.85211000000001
962,32.480939394686295,0.8874393191237316,32.58223130548053,0.01291990186591704,-3.0,-88.85211000000001
963,32.51470336495104,0.921379819351263,32.61599527574528,-0.23867529238923654,-3.0,-88.85211000000001
964,32.54846733521578,0.9139634892097644,32.3458835136273,1.0739347698841368,6.0,177.70422000000002
965,32.58223130548053,0.8813100352037874,32.37964748389205,0.6536569360984603,6.0,177.70422000000002
966,32.61599527574528,0.8149659827346045,32.413411454156794,0.36206277607943554,6.0,177.70422000000002
967,32.64975924601003,0.7034424109990149,32.447175424421545,0.24344715523502758,6.0,177.70422000000002
968,32.68352321627477,0.5505149133602285,32.48093939468629,0.24086437890241677,6.0,177.70422000000002
969,32.71728718653952,0.3769749951092515,32.51470336495104,0.24975832406982182,6.0,177.70422000000002
970,32.751051156804266,0.20677014884815703,32.54846733521578,0.1836501345572483,6.0,177.70422000000002
971,32.78481512706901,0.048121467036948994,32.582231305480526,0.01291990186595296,6.0,177.70422000000002
972,32.81857909733376,-0.11669870654608826,32.61599527574528,-0.23867529238923654,6.0,177.70422000000002
973,32.852343067598504,-0.322539079527113,32.64975924601002,-0.5255027191096028,6.0,177.70422000000002
974,32.886107037863255,-0.593639503939281,32.68352321627477,-0.809694564255261,6.0,177.70422000000002
975,32.919871008128,-0.9115470892638589,32.717287186539515,-1.0663891711175888,6.0,177.70422000000002
976,32.95363497839275,-1.2017993862071648,32.751051156804266,-1.2654080767590836,6.0,177.70422000000002
977,32.98739894865749,-1.355823505965795,32.78481512706901,-1.3520443591564342,6.0,177.70422000000002
978,33.021162918922236,-1.282978618831099,32.81857909733375,-1.2533364402800657,6.0,177.70422000000002
979,33.05492688918699,-0.9644224272061707,32.852343067598504,-0.917239021053278,6.0,177.70422000000002
980,33.08869085945173,-0.47341203448786184,32.88610703786325,-0.36278115060062377,6.0,177.70422000000002
981,33.12245482971648,0.055227027477435575,32.919871008128,0.29756121983023504,6.0,177.70422000000002
982,33.156218799981225,0.49012623021387663,32.95363497839274,0.8894926869599804,6.0,177.70422000000002
983,33.189982770245976,0.7622931903460629,32.98739894865749,1.252189058505513,6.0,177.70422000000002
984,33.22374674051072,0.8825996012970959,33.021162918922236,1.3138451001436906,6.0,177.70422000000002
985,33.25751071077546,0.9128927174984349,33.05492688918698,1.1215160312682624,6.0,177.70422000000002
986,33.291274681040214,0.9160926070579108,33.08869085945173,0.8090142308693604,6.0,177.70422000000002
987,33.32503865130496,0.9193859925486851,33.426330562099196,-0.7820863124526691,-3.0,-88.85211000000001
988,33.35880262156971,0.9100248427656239,33.46009453236395,-0.9442497348918398,-3.0,-88.85211000000001
989,33.39256659183445,0.8588180074931936,33.49385850262869,-1.0926255546643184,-3.0,-88.85211000000001
990,33.4263305620992,0.7489794913781476,33.52762247289344,-1.2456082155981056,-3.0,-88.85211000000001
991,33.46009453236395,0.5879604248598327,33.25751071077546,0.31560493758480773,6.0,177.70422000000002
992,33.49385850262869,0.3955467106150206,33.29127468104021,0.19277367729479722,6.0,177.70422000000002
993,33.52762247289344,0.18079250853339215,33.32503865130496,-0.03243500679073659,6.0,177.70422000000002
994,33.561386443158185,-0.07077919218217199,33.3588026215697,-0.3094194586146109,6.0,177.70422000000002
995,33.595150413422935,-0.3864022096390004,33.39256659183445,-0.5724150722084203,6.0,177.70422000000002
996,33.62891438368768,-0.7771922194982008,33.426330562099196,-0.7820863124526691,6.0,177.70422000000002
997,33.66267835395242,-1.2110086485479308,33.46009453236394,-0.9442497348918057,6.0,177.70422000000002
998,33.69644232421717,-1.6063216109758223,33.49385850262869,-1.0926255546643184,6.0,177.70422000000002
999,33.73020629448192,-1.853821676843108,33.527622472893434,-1.2456082155980734,6.0,177.70422000000002
1000,33.76397026474667,-1.8584386032498095,33.561386443158185,-1.3664269867475811,6.0,177.70422000000002
1001,33.79773423501141,-1.584886191559456,33.59515041342293,-1.359006358098834,6.0,177.70422000000002
1002,33.83149820527616,-1.084811298788061,33.62891438368768,-1.112813680426015,6.0,177.70422000000002
1003,33.865262175540906,-0.48580398174647077,33.66267835395242,-0.5770337874813042,6.0,177.70422000000002
1004,33.89902614580565,0.060795471578541545,33.696442324217166,0.1816746813359652,6.0,177.70422000000002
1005,33.9327901160704,0.44837890661505575,33.73020629448192,0.9813753790681677,6.0,177.70422000000002
1006,33.966554086335144,0.6581911622797394,33.76397026474666,1.5960208593608325,6.0,177.70422000000002
1007,34.000318056599895,0.7504145148961713,33.79773423501141,1.8593226868161858,6.0,177.70422000000002
1008,34.03408202686464,0.8135174040443851,33.831498205276155,1.7417958717425357,6.0,177.70422000000002
1009,34.06784599712939,0.9084541806335138,33.865262175540906,1.357264139877763,6.0,177.70422000000002
1010,34.10160996739413,1.0402368695829116,33.89902614580565,0.897818323954056,6.0,177.70422000000002
1011,34.135373937658876,1.1660034950570506,33.93279011607039,0.5366216087225024,6.0,177.70422000000002
1012,34.16913790792363,1.2279587129593632,33.966554086335144,0.35223968168119574,6.0,177.70422000000002
1013,34.20290187818837,1.1901934818694127,34.00031805659989,0.31121198749683243,6.0,177.70422000000002
1014,34.23666584845312,1.0583464058520855,34.06784599712939,0.24611218649134292,5.0,148.08685
1015,34.270429818717865,0.8704108078371634,34.10160996739413,0.07252479282167815,5.0,148.08685
1016,34.304193788982616,0.6648117342996478,34.13537393765888,-0.1887091251191124,5.0,148.08685
1017,34.33795775924736,0.44816397893283766,34.16913790792363,-0.4784400234236052,5.0,148.08685
1018,34.3717217295121,0.18741785962042076,34.20290187818837,-0.7482744341989117,5.0,148.08685
1019,34.405485699776854,-0.1636539533701295,34.23666584845312,-0.9900849992665325,5.0,148.08685
1020,34.4392496700416,-0.6173475435555958,34.270429818717865,-1.2257378636795215,5.0,148.08685
1021,34.47301364030635,-1.1157440279543513,34.304193788982616,-1.463736524801512,5.0,148.08685
1022,34.50677761057109,-1.534540544182099,34.33795775924736,-1.655075079163238,5.0,148.08685
1023,34.54054158083584,-1.7325861283517643,34.37172172951211,-1.6869276033550753,5.0,148.08685
1024,34.574305551100586,-1.6223215801259783,34.405485699776854,-1.432146613235997,5.0,148.08685
1025,34.60806952136533,-1.220291508522349,34.4392496700416,-0.8338744647638592,5.0,148.08685
1026,34.64183349163008,-0.6468795281489343,34.47301364030635,0.02731577788710882,5.0,148.08685
1027,34.675597461894824,-0.07401552212843993,34.50677761057109,0.9354569330864603,5.0,148.08685
1028,34.709361432159575,0.35086238959440363,34.54054158083584,1.6227790755570823,5.0,148.08685
1029,34.74312540242432,0.5644071835721499,34.574305551100586,1.8935897393470433,5.0,148.08685
1030,34.77688937268906,0.6006290801047054,34.60806952136533,1.7175131250929137,5.0,148.08685
1031,34.81065334295381,0.5537038110653277,34.64183349163008,1.2377839392109586,5.0,148.08685
1032,34.84441731321856,0.5148358319604065,34.675597461894824,0.6917125213077204,5.0,148.08685
1033,34.87818128348331,0.5226613805855946,34.709361432159575,0.2913719177040563,5.0,148.08685
1034,34.91194525374805,0.5555227674573683,34.74312540242432,0.1310926309136997,5.0,148.08685
1035,34.9457092240128,0.5627343797418602,35.519696718513494,0.2058191951074488,-17.0,-503.49529
1036,34.979473194277546,0.5050761514255793,34.81065334295381,0.26592396888338665,5.0,148.08685
1037,35.01323716454229,0.37328598975304805,34.8781812834833,0.1731318863175416,4.0,118.46948
1038,35.04700113480704,0.17643212027740365,34.91194525374805,-0.08967683567089689,4.0,118.46948
1039,35.080765105071784,-0.08049296651885418,34.945709224012795,-0.44128567700024324,4.0,118.46948
1040,35.114529075336534,-0.40128974230175113,34.979473194277546,-0.8189417328290404,4.0,118.46948
1041,35.14829304560128,-0.7747642796168432,34.979473194277546,-0.8189417328290404,5.0,148.08685
1042,35.18205701586603,-1.1425029805741838,35.013237164542296,-1.1735098666322499,5.0,148.08685
1043,35.21582098613077,-1.394406131317571,35.04700113480704,-1.4603169063197792,5.0,148.08685
1044,35.249584956395516,-1.4107626188748996,35.080765105071784,-1.6161930809187268,5.0,148.08685
1045,35.28334892666027,-1.1304208906492275,35.114529075336534,-1.5550390189180479,5.0,148.08685
1046,35.31711289692501,-0.5979255885630654,35.14829304560128,-1.201830690781234,5.0,148.08685
1047,35.35087686718976,0.04704754005516847,35.21582098613077,0.2849522012699269,4.0,118.46948
1048,35.384640837454505,0.6342377827358956,35.249584956395516,1.1011225901804498,4.0,118.46948
1049,35.418404807719256,1.0394145224697067,35.28334892666027,1.6678772026242943,4.0,118.46948
1050,35.452168777984,1.2257121169521876,35.31711289692501,1.8398980224505948,4.0,118.46948
1051,35.48593274824874,1.2324621582449906,35.350876867189754,1.6228794714846277,4.0,118.46948
1052,35.519696718513494,1.1320063411611117,35.384640837454505,1.165088617714941,4.0,118.46948
1053,35.55346068877824,0.9889385368981604,35.41840480771925,0.6784672953884248,4.0,118.46948
1054,35.58722465904299,0.8418060057112227,35.452168777984,0.3353291562572314,4.0,118.46948
1055,35.62098862930773,0.7052290869649613,35.48593274824874,0.1967156153273494,4.0,118.46948
1056,35.65475259957248,0.5800592366359502,35.519696718513494,0.2058191951074488,4.0,118.46948
1057,35.688516569837226,0.46159302720261053,35.55346068877824,0.241124729793254,4.0,118.46948
1058,35.72228054010197,0.3416935103708039,35.58722465904298,0.1924713743510102,4.0,118.46948
1059,35.75604451036672,0.20512882169176402,35.62098862930773,0.01583781164722101,4.0,118.46948
1060,35.789808480631464,0.024947773286124412,35.654752599572475,-0.25926421653603426,4.0,118.46948
1061,35.823572450896215,-0.2342364301300883,35.688516569837226,-0.5654095348569123,4.0,118.46948
1062,35.85733642116096,-0.5981973871440148,35.72228054010197,-0.8469748767828276,4.0,118.46948
1063,35.89110039142571,-1.0546009038939672,35.75604451036672,-1.0894803600945497,4.0,118.46948
1064,35.92486436169045,-1.5316169715943042,35.789808480631464,-1.309485532838711,4.0,118.46948
1065,35.9586283319552,-1.9038875315636055,35.82357245089621,-1.5132763235097164,4.0,118.46948
1066,35.99239230221995,-2.033033044383907,35.85733642116096,-1.6559220991222812,4.0,118.46948
1067,36.02615627248469,-1.8284488274724136,35.8911003914257,-1.6363971644811688,4.0,118.46948
1068,36.05992024274944,-1.2977760009095354,35.92486436169045,-1.343690764598192,4.0,118.46948
1069,36.093684213014186,-0.5564571018076802,35.9586283319552,-0.733195757495894,4.0,118.46948
1070,36.12744818327893,0.21421537062270085,35.99239230221994,0.11479662217657594,4.0,118.46948
1071,36.16121215354368,0.8408395045552446,36.02615627248469,0.9998313295375648,4.0,118.46948
1072,36.19497612380842,1.2238408080521477,36.059920242749435,1.6782039101354949,4.0,118.46948
1073,36.228740094073174,1.361827942613472,36.093684213014186,1.9735628231969822,4.0,118.46948
1074,36.26250406433792,1.327527795862108,36.12744818327893,1.8580483244924035,4.0,118.46948
1075,36.29626803460267,1.2164606250365042,36.16121215354368,1.4574469616289851,4.0,118.46948
1076,36.33003200486741,1.0998611192203434,36.19497612380842,0.9798229489251654,4.0,118.46948
1077,36.363795975132156,1.0025341139340425,36.26250406433792,0.4322356027774713,3.0,88.85211000000001
1078,36.39755994539691,0.9070884970347988,36.29626803460267,0.4056488387003414,3.0,88.85211000000001
1079,36.43132391566165,0.7739210082182049,36.33003200486741,0.41639654315171964,3.0,88.85211000000001
1080,36.4650878859264,0.564715042386825,36.36379597513216,0.35042680640833385,3.0,88.85211000000001
1081,36.498851856191145,0.2595048953250033,36.39755994539691,0.15582618543424473,3.0,88.85211000000001
1082,36.532615826455896,-0.13822309264150479,36.43132391566166,-0.1413013105790337,3.0,88.85211000000001
1083,36.56637979672064,-0.6047129934715361,36.4650878859264,-0.46883681998052623,3.0,88.85211000000001
1084,36.60014376698538,-1.096747583719784,36.498851856191145,-0.7626485174558034,3.0,88.85211000000001
1085,36.633907737250134,-1.5460445407697612,36.532615826455896,-1.005336007652361,3.0,88.85211000000001
1086,36.66767170751488,-1.8581980858354656,36.56637979672064,-1.2235634562635236,3.0,88.85211000000001
1087,36.70143567777963,-1.9313904545958702,36.60014376698539,-1.4453345418551375,3.0,88.85211000000001
1088,36.73519964804437,-1.6959849042280535,36.633907737250134,-1.6470092276262402,3.0,88.85211000000001
1089,36.76896361830912,-1.1564324840635787,36.667671707514884,-1.7315126934110647,3.0,88.85211000000001
1090,36.802727588573866,-0.4091477016912276,36.70143567777963,-1.5638137988942864,3.0,88.85211000000001
1091,36.83649155883861,0.3797171803767994,36.73519964804437,-1.0528088313826731,3.0,88.85211000000001
1092,36.87025552910336,1.030826712638835,36.76896361830912,-0.23206830739384632,3.0,88.85211000000001
1093,36.904019499368104,1.416465713617611,36.802727588573866,0.7175110705497995,3.0,88.85211000000001
1094,36.937783469632855,1.502003976808011,36.83649155883862,1.5297935988962954,3.0,88.85211000000001
1095,36.9715474398976,1.3462707757550416,36.87025552910336,1.9730252840507447,3.0,88.85211000000001
1096,37.00531141016235,1.0657967977083322,36.90401949936811,1.959629275762056,3.0,88.85211000000001
1097,37.03907538042709,0.7832151641694528,36.937783469632855,1.5823175063431107,3.0,88.85211000000001
1098,37.07283935069184,0.5821918301692749,36.9715474398976,1.057505271630865,3.0,88.85211000000001
1099,37.10660332095659,0.484780409179204,37.00531141016235,0.6114754426596879,3.0,88.85211000000001
1100,37.14036729122133,0.4567493123380197,37.03907538042709,0.3740257550136001,3.0,88.85211000000001
1101,37.17413126148608,0.43480270652404324,37.072839350691844,0.33415895942018736,3.0,88.85211000000001
1102,37.207895231750825,0.3609247588622031,37.10660332095659,0.3732621051395332,3.0,88.85211000000001
1103,37.241659202015576,0.20737891510715037,37.14036729122134,0.3480061525356219,3.0,88.85211000000001
1104,37.27542317228032,-0.018341072354578585,37.17413126148608,0.17201582977490895,3.0,88.85211000000001
1105,37.30918714254506,-0.288544119657443,37.24165920201557,-0.5294464319762984,2.0,59.23474
1106,37.342951112809814,-0.5784911211038929,37.27542317228032,-0.8795177329217564,2.0,59.23474
1107,37.37671508307456,-0.8793499927218031,37.30918714254506,-1.1430524563114242,2.0,59.23474
1108,37.41047905333931,-1.1886500871481869,37.342951112809814,-1.324842717142859,2.0,59.23474
1109,37.44424302360405,-1.4840779399984894,37.37671508307456,-1.46070378874878,2.0,59.23474
1110,37.478006993868796,-1.7038597641367097,37.4104790533393,-1.5635721701476042,2.0,59.23474
1111,37.51177096413355,-1.757020716508555,37.44424302360405,-1.5838802935448193,2.0,59.23474
1112,37.54553493439829,-1.5658960904503394,37.478006993868796,-1.418763924056668,2.0,59.23474
1113,37.57929890466304,-1.1168612869549417,37.51177096413355,-0.9742779180682509,2.0,59.23474
1114,37.613062874927785,-0.48500809328668637,37.54553493439829,-0.24594050525222028,2.0,59.23474
1115,37.646826845192535,0.18711443230434815,37.57929890466304,0.6376744447439966,2.0,59.23474
1116,37.68059081545728,0.7482104091403015,37.613062874927785,1.4469310222442817,2.0,59.23474
1117,37.71435478572202,1.1026719058240995,37.64682684519253,1.9500887726541474,2.0,59.23474
1118,37.74811875598677,1.2451489304988557,37.68059081545728,2.024606299082187,2.0,59.23474
1119,37.78188272625152,1.2473940493398303,37.71435478572202,1.7150947015427422,2.0,59.23474
1120,37.81564669651627,1.2075436678192402,37.74811875598677,1.2043616449036063,2.0,59.23474
1121,37.84941066678101,1.1924849142153895,37.78188272625152,0.7164094796907382,2.0,59.23474
1122,37.88317463704576,1.2054321021812446,37.81564669651627,0.4081148843487885,2.0,59.23474
1123,37.916938607310506,1.1947345514470962,37.84941066678101,0.30794431366506475,2.0,59.23474
1124,37.95070257757525,1.096103469081867,37.883174637045755,0.3283686965515145,2.0,59.23474
1125,37.98446654784,0.8809599468141951,37.916938607310506,0.33537329151321926,2.0,59.23474
1126,38.018230518104744,0.5793435930577217,37.95070257757525,0.229341354649854,2.0,59.23474
1127,38.051994488369495,0.261308080795547,37.98446654784,-0.008530592836776266,2.0,59.23474
1128,38.08575845863424,-0.011404985508776114,38.018230518104744,-0.3244765545910936,2.0,59.23474
1129,38.11952242889899,-0.22968034993704078,38.051994488369495,-0.6412019890425125,2.0,59.23474
1130,38.15328639916373,-0.44466173149114113,38.08575845863424,-0.9113222580594483,2.0,59.23474
1131,38.187050369428476,-0.7304514224496657,38.11952242889898,-1.1392808866495099,2.0,59.23474
1132,38.22081433969323,-1.1236586844583,38.15328639916373,-1.3577902982911452,2.0,59.23474
1133,38.25457830995797,-1.5774466612193918,38.187050369428476,-1.5755657767505975,2.0,59.23474
1134,38.28834228022272,-1.9613666752010703,38.22081433969323,-1.7348192251159247,2.0,59.23474
1135,38.322106250487465,-2.113574575669738,38.25457830995797,-1.7153006987254997,2.0,59.23474
1136,38.355870220752216,-1.9212822931758455,38.28834228022272,-1.394205496975363,2.0,59.23474
1137,38.38963419101696,-1.3857979018362765,38.322106250487465,-0.7321399667814806,2.0,59.23474
1138,38.4233981612817,-0.6334330145611401,38.35587022075221,0.1697152991894748,2.0,59.23474
1139,38.457162131546454,0.13771807057982002,38.38963419101696,1.0859726059819927,2.0,59.23474
1140,38.4909261018112,0.7477972370647215,38.4233981612817,1.758187423099447,2.0,59.23474
1141,38.52469007207595,1.1114097783625476,38.457162131546454,2.0131920737329083,2.0,59.23474
1142,38.55845404234069,1.2576768639400686,38.4909261018112,1.841340381464073,2.0,59.23474
1143,38.592218012605436,1.2878755283966852,38.52469007207594,1.3910596205490076,2.0,59.23474
1144,38.62598198287019,1.3021771039844257,38.59221801260544,0.5152532653786898,1.0,29.61737
1145,38.65974595313493,1.3402180438011513,38.62598198287019,0.3525894025387847,1.0,29.61737
1146,38.69350992339968,1.3658998815842036,38.65974595313494,0.3469041847206804,1.0,29.61737
1147,38.727273893664425,1.299162555337087,38.65974595313493,0.3469041847206747,2.0,59.23474
1148,38.761037863929175,1.0713757068802798,38.69350992339968,0.3739643426111402,2.0,59.23474
1149,38.79480183419392,0.6690874787600265,38.727273893664425,0.3167480564213892,2.0,59.23474
1150,38.82856580445866,0.14132583179497882,38.76103786392917,0.12710065198237963,2.0,59.23474
1151,38.86232977472341,-0.4280183261223374,38.82856580445867,-0.4709819818995518,1.0,29.61737
1152,38.89609374498816,-0.958452851020173,38.86232977472341,-0.7361155324236922,1.0,29.61737
1153,38.92985771525291,-1.394395356693518,38.896093744988164,-0.9466531430311186,1.0,29.61737
1154,38.96362168551765,-1.6997558488623372,38.89609374498816,-0.9466531430310772,2.0,59.23474
1155,38.9973856557824,-1.8391494194310931,38.92985771525291,-1.143541745099514,2.0,59.23474
1156,39.031149626047146,-1.7708449067370449,38.96362168551765,-1.3713598319563214,2.0,59.23474
1157,39.06491359631189,-1.4658912435183553,38.997385655782395,-1.616746200909731,2.0,59.23474
1158,39.09867756657664,-0.9423563447141874,39.031149626047146,-1.7776856474668383,2.0,59.23474
1159,39.132441536841384,-0.2849061199812323,39.06491359631189,-1.6952791874817814,2.0,59.23474
1160,39.166205507106135,0.3726007584201304,39.09867756657664,-1.2418869067259763,2.0,59.23474
1161,39.19996947737088,0.8948740703966757,39.132441536841384,-0.41783688250443124,2.0,59.23474
1162,39.23373344763563,1.1945272268262057,39.166205507106135,0.6074800868315174,2.0,59.23474
1163,39.26749741790037,1.258101853345255,39.19996947737088,1.5477887207496976,2.0,59.23474
1164,39.301261388165116,1.1419906812966565,39.23373344763562,2.125808158345205,2.0,59.23474
1165,39.33502535842987,0.9435167189287558,39.26749741790037,2.20383954223575,2.0,59.23474
1166,39.36878932869461,0.7579297282809947,39.33502535842987,1.269452885868335,1.0,29.61737
1167,39.40255329895936,0.6390775440085961,39.36878932869462,0.7423299113478665,1.0,29.61737
1168,39.436317269224105,0.5841491622774797,39.40255329895936,0.443071137958915,1.0,29.61737
1169,39.470081239488856,0.5502867780743325,39.43631726922411,0.3968066150268936,1.0,29.61737
1170,39.5038452097536,0.48930579472751995,39.470081239488856,0.4875083356410851,1.0,29.61737
1171,39.53760918001834,0.3758173747145272,39.5038452097536,0.5393523402548263,1.0,29.61737
1172,39.571373150283094,0.21281060728876133,39.53760918001835,0.4165968009857591,1.0,29.61737
1173,39.60513712054784,0.017137903259545693,39.571373150283094,0.08882319679938425,1.0,29.61737
1174,39.63890109081259,-0.19990504565818337,39.605137120547845,-0.3680118538145231,1.0,29.61737
1175,39.67266506107733,-0.4411687982250631,39.63890109081259,-0.8277156960674457,1.0,29.61737
1176,39.70642903134208,-0.7146151580714112,39.67266506107734,-1.1901720723419102,1.0,29.61737
1177,39.740193001606826,-1.0118363341355638,39.70642903134208,-1.4320126682313479,1.0,29.61737
1178,39.77395697187157,-1.2884728950689532,39.740193001606826,-1.602008606491118,1.0,29.61737
1179,39.80772094213632,-1.4633692863529226,39.77395697187158,-1.764344926046974,1.0,29.61737
1180,39.841484912401064,-1.4463086249784542,39.80772094213632,-1.9255807856114695,1.0,29.61737
1181,39.875248882665815,-1.1874302954348341,39.84148491240107,-1.9954319746682057,1.0,29.61737
1182,39.90901285293056,-0.722123724208331,39.875248882665815,-1.8164634802246196,1.0,29.61737
1183,39.9427768231953,-0.1778150352460502,39.90901285293056,-1.2570450583027657,1.0,29.61737
1184,39.97654079346005,0.27451994218773584,39.94277682319531,-0.31677129280722505,1.0,29.61737
1185,40.0103047637248,0.5056711452820533,39.97654079346005,0.82545189650088,1.0,29.61737
1186,40.04406873398955,0.5009204484420489,40.010304763724804,1.8636345599678588,1.0,29.61737
1187,40.07783270425429,0.37080956406345206,40.04406873398955,2.498867864952599,1.0,29.61737
1188,40.11159667451904,0.28701301016200326,40.0778327042543,2.5816262761177047,1.0,29.61737
1189,40.145360644783786,0.38011775309360774,40.11159667451904,2.1795281469360024,1.0,29.61737
1190,40.17912461504853,0.6632535411881151,40.145360644783786,1.5327670272170444,1.0,29.61737
1191,40.21288858531328,1.0283692294334612,40.179124615048536,0.9264366919782653,1.0,29.61737
1192,40.246652555578024,1.3123475670612728,40.21288858531328,0.5538946086793756,1.0,29.61737
1193,40.280416525842774,1.3863383875992807,40.24665255557803,0.4434792241585935,1.0,29.61737
1194,40.31418049610752,1.2148135847225994,40.280416525842774,0.4788403912560314,1.0,29.61737
1195,40.34794446637227,0.8582781466928617,40.314180496107525,0.4890771947797035,1.0,29.61737
1196,40.38170843663701,0.42847852355772126,40.34794446637227,0.35007915880836254,1.0,29.61737
1197,40.415472406901756,0.02602328061850948,40.38170843663701,0.04031608062214394,1.0,29.61737
1198,40.44923637716651,-0.30589150333609527,40.41547240690176,-0.37203419340417504,1.0,29.61737
1199,40.48300034743125,-0.5880701094555091,40.44923637716651,-0.7908037951286515,1.0,29.61737
1200,40.516764317696,-0.8702794102196545,40.48300034743126,-1.1559075328505541,1.0,29.61737
1201,40.550528287960745,-1.1776222594299628,40.516764317696,-1.4666976392288689,1.0,29.61737
1202,40.584292258225496,-1.4736373292911527,40.55052828796075,-1.7510883914499042,1.0,29.61737
1203,40.61805622849024,-1.6649972592359445,40.584292258225496,-2.0046519395895777,1.0,29.61737
1204,40.65182019875498,-1.646468555334258,40.61805622849024,-2.147311662571252,1.0,29.61737
1205,40.685584169019734,-1.3603688332578219,40.65182019875499,-2.0385195444938984,1.0,29.61737
1206,40.71934813928448,-0.8362840810584342,40.685584169019734,-1.555095939262425,1.0,29.61737
1207,40.75311210954923,-0.18794267136458992,40.719348139284484,-0.6893487471369818,1.0,29.61737
1208,40.78687607981397,0.4317447987041042,40.75311210954923,0.39927947729492974,1.0,29.61737
1209,40.82064005007872,0.893180021440733,40.78687607981398,1.4251342999071934,1.0,29.61737
1210,40.854404020343466,1.1370609432239007,40.82064005007872,2.0982637377457456,1.0,29.61737
1211,40.88816799060821,1.1832380275825674,40.854404020343466,2.260149971929472,1.0,29.61737
1212,40.92193196087296,1.1014694056445093,40.88816799060822,1.9539328435051968,1.0,29.61737
1213,40.955695931137704,0.965591490633685,40.92193196087296,1.3902466522749164,1.0,29.61737
1214,40.989459901402455,0.8200880130898541,40.95569593113771,0.832953256543068,1.0,29.61737
1215,41.0232238716672,0.6762562097786302,40.989459901402455,0.4722365946794901,1.0,29.61737
1216,41.05698784193195,0.5322303328962582,41.023223871667206,0.3520902814837087,1.0,29.61737
1217,41.09075181219669,0.39465606628806066,41.05698784193195,0.3818182820934092,1.0,29.61737
1218,41.12451578246144,0.282108840098341,41.09075181219669,0.41279227909369043,1.0,29.61737
1219,41.15827975272619,0.20771062581136204,41.124515782461444,0.3297154029994815,1.0,29.61737
1220,41.19204372299093,0.15634605960093037,41.15827975272619,0.1048915477185659,1.0,29.61737
1221,41.22580769325568,0.07756955184853619,41.19204372299094,-0.20855811620206502,1.0,29.61737
1222,41.259571663520425,-0.0946552540230711,41.22580769325568,-0.5305477401184978,1.0,29.61737
1223,41.29333563378517,-0.402620408372294,41.259571663520425,-0.8141807795212007,1.0,29.61737
1224,41.32709960404992,-0.8276195454772499,41.293335633785176,-1.0703131566244433,1.0,29.61737
1225,41.36086357431466,-1.278109705248965,41.32709960404992,-1.3391974499957018,1.0,29.61737
1226,41.394627544579414,-1.6148022828110702,41.36086357431467,-1.6281876927375425,1.0,29.61737
1227,41.42839151484416,-1.7052017261840824,41.394627544579414,-1.8612841677324832,1.0,29.61737
1228,41.46215548510891,-1.4836363541965762,41.428391514844165,-1.8853313169301167,1.0,29.61737
1229,41.49591945537365,-0.9874244248245623,41.46215548510891,-1.5448034090881029,1.0,29.61737
1230,41.529683425638396,-0.34908219209736807,41.49591945537365,-0.7887885259381584,1.0,29.61737
1231,41.56344739590315,0.25463461319183023,41.5296834256384,0.25810368842396747,1.0,29.61737
1232,41.59721136616789,0.6735404831645027,41.56344739590315,1.3172025208981237,1.0,29.61737
1233,41.63097533643264,0.84085149566911,41.5972113661679,2.0711569629728492,1.0,29.61737
1234,41.664739306697385,0.7907294217408521,41.63097533643264,2.312513421805145,1.0,29.61737
1235,41.698503276962136,0.6320123449622435,41.66473930669739,2.0399647399059533,1.0,29.61737
1236,41.73226724722688,0.4933289003214952,41.698503276962136,1.4478387321069324,1.0,29.61737
1237,41.76603121749162,0.46517124509375307,41.73226724722688,0.8188204250769898,1.0,29.61737
1238,41.799795187756374,0.5639664666915313,41.76603121749163,0.3840241025029597,1.0,29.61737
1239,41.83355915802112,0.7329400732012168,41.799795187756374,0.22656955062834103,1.0,29.61737
1240,41.86732312828587,0.8776414494980069,41.833559158021124,0.2727527139070135,1.0,29.61737
1241,41.90108709855061,0.9163886485429794,41.86732312828587,0.36223074135607664,1.0,29.61737
