frame_idx,t_rppg,rppg_n,t_gt_pair,ppg_n_pair,lag_samples,lag_frames
0,0.0,-0.07950209840563072,-0.03389201036187211,-0.018461169541723412,1.0,29.505479
1,0.03389201036187211,0.06842455795822229,0.0,-0.018461169541723412,1.0,29.505479
2,0.06778402072374422,0.33869626318211327,0.03389201036187211,-0.22736306844817816,1.0,29.505479
3,0.10167603108561633,0.7826249730603553,0.06778402072374423,-0.22005086112499933,1.0,29.505479
4,0.13556804144748844,1.3491454322412704,0.10167603108561632,0.09652119423052233,1.0,29.505479
5,0.16946005180936055,1.9082205934075371,0.13556804144748844,0.6387234885730131,1.0,29.505479
6,0.20335206217123267,2.312551856590119,0.16946005180936055,1.1905992243957209,1.0,29.505479
7,0.23724407253310478,2.462626881879659,0.20335206217123267,1.5195905449232752,1.0,29.505479
8,0.27113608289497687,2.3425330257689874,0.23724407253310476,1.4963368250469027,1.0,29.505479
9,0.305028093256849,2.011823100109387,0.27113608289497687,1.1518996627790183,1.0,29.505479
10,0.3389201036187211,1.5618265100660156,0.305028093256849,0.6460725002999755,1.0,29.505479
11,0.3728121139805932,1.0629784852653434,0.3389201036187211,0.1729224253137174,1.0,29.505479
12,0.40670412434246533,0.5340245917131438,0.3728121139805932,-0.1387427839849627,1.0,29.505479
13,0.44059613470433745,-0.049237955618905385,0.40670412434246533,-0.2770340905071153,1.0,29.505479
14,0.47448814506620957,-0.7119816539136379,0.44059613470433745,-0.3299293414499085,1.0,29.505479
15,0.5083801554280817,-1.4309460661023263,0.47448814506620957,-0.4162196520735851,1.0,29.505479
16,0.5422721657899537,-2.1066736456944306,0.5083801554280817,-0.605034503218511,1.0,29.505479
17,0.5761641761518259,-2.5758740739736767,0.5422721657899539,-0.8666865014706941,1.0,29.505479
18,0.610056186513698,-2.666811432422289,0.5761641761518259,-1.080424128777869,1.0,29.505479
19,0.6439481968755701,-2.281146712028597,0.6100561865136981,-1.0966104313943232,1.0,29.505479
20,0.6778402072374422,-1.4639532158165687,0.6439481968755701,-0.8229393399445835,1.0,29.505479
21,0.7117322175993144,-0.41580755322601975,0.6778402072374423,-0.28884656888342997,1.0,29.505479
22,0.7456242279611864,0.5751475662638963,0.7117322175993144,0.35054608279381844,1.0,29.505479
23,0.7795162383230585,1.2542279880580482,0.7456242279611864,0.8789874257311031,1.0,29.505479
24,0.8134082486849307,1.5078302945250055,0.7795162383230586,1.1205421719361837,1.0,29.505479
25,0.8473002590468027,1.3950039732083832,0.8134082486849307,1.0222519598502553,1.0,29.505479
26,0.8811922694086749,1.08823678168481,0.8473002590468028,0.6716821184756934,1.0,29.505479
27,0.915084279770547,0.7650871773002456,0.8811922694086749,0.24132725329863128,1.0,29.505479
28,0.9489762901324191,0.5166628944317371,0.9150842797705471,-0.1057645458897895,1.0,29.505479
29,0.9828683004942912,0.3199897145645317,0.9489762901324191,-0.294895158343368,1.0,29.505479
30,1.0167603108561634,0.08019890672456434,0.9828683004942913,-0.361362002814757,1.0,29.505479
31,1.0506523212180354,-0.28657311959538406,1.0167603108561634,-0.4075273229894718,1.0,29.505479
32,1.0845443315799075,-0.7749730421746198,1.0506523212180354,-0.5236563398046022,1.0,29.505479
33,1.1184363419417795,-1.2607574211306611,1.0845443315799075,-0.7193296508165344,1.0,29.505479
34,1.1523283523036518,-1.544032815479329,1.1184363419417798,-0.9055404992937495,1.0,29.505479
35,1.1862203626655239,-1.4516205997570886,1.1523283523036518,-0.9398697592040088,1.0,29.505479
36,1.220112373027396,-0.9431045863944755,1.1862203626655239,-0.711797675566,1.0,29.505479
37,1.254004383389268,-0.15240410485702088,1.220112373027396,-0.2200718401557277,1.0,29.505479
38,1.2878963937511403,0.6674619783997373,1.2540043833892682,0.405579997556486,1.0,29.505479
39,1.3217884041130123,1.2657455048666217,1.2878963937511403,0.9565268256265486,1.0,29.505479
40,1.3556804144748844,1.508685763766894,1.3217884041130123,1.2451130535430113,1.0,29.505479
41,1.3895724248367565,1.4236308748547266,1.3556804144748844,1.1956225309692976,1.0,29.505479
42,1.4234644351986288,1.155759857503057,1.3895724248367567,0.874314151422081,1.0,29.505479
43,1.4573564455605008,0.8699226334689381,1.4234644351986288,0.4441121086797792,1.0,29.505479
44,1.4912484559223729,0.6552626977615028,1.4573564455605008,0.07401355740228166,1.0,29.505479
45,1.525140466284245,0.4848710063016905,1.4912484559223729,-0.14376472839649462,1.0,29.505479
46,1.559032476646117,0.2515789151301582,1.525140466284245,-0.2252975275691583,1.0,29.505479
47,1.5929244870079893,-0.14272125067017888,1.5590324766461172,-0.26343086358479195,1.0,29.505479
48,1.6268164973698613,-0.6997277489319356,1.5929244870079893,-0.3559437560101011,1.0,29.505479
49,1.6607085077317334,-1.2947128494475029,1.6268164973698613,-0.5355163116524684,1.0,29.505479
50,1.6946005180936055,-1.7247536581497787,1.6607085077317334,-0.7405924277072704,1.0,29.505479
51,1.7284925284554777,-1.8093588586572462,1.6946005180936057,-0.8440871746520732,1.0,29.505479
52,1.7623845388173498,-1.4867231392867521,1.7284925284554777,-0.7262143127814725,1.0,29.505479
53,1.7962765491792219,-0.8512921459635105,1.7623845388173498,-0.35234303247801474,1.0,29.505479
54,1.830168559541094,-0.11246961295636883,1.7962765491792219,0.1897281385843288,1.0,29.505479
55,1.864060569902966,0.500921251131214,1.830168559541094,0.7193162137347443,1.0,29.505479
56,1.8979525802648383,0.8381174274037222,1.8640605699029662,1.0473684927181393,1.0,29.505479
57,1.9318445906267103,0.8776129086582428,1.8979525802648383,1.0694450269496782,1.0,29.505479
58,1.9657366009885824,0.7131069641954836,1.9318445906267103,0.8134912735499851,1.0,29.505479
59,1.9996286113504544,0.48959320275969714,1.9657366009885824,0.41582217205707434,1.0,29.505479
60,2.0335206217123267,0.3254415361817141,1.9996286113504547,0.042253074822776904,1.0,29.505479
61,2.067412632074199,0.2569278609004764,2.0335206217123267,-0.1978331999646656,1.0,29.505479
62,2.101304642436071,0.22888765071456818,2.067412632074199,-0.2966104760816204,1.0,29.505479
63,2.135196652797943,0.13580036914763952,2.101304642436071,-0.3312664119492742,1.0,29.505479
64,2.169088663159815,-0.10571039669567507,2.135196652797943,-0.4003391678504752,1.0,29.505479
65,2.202980673521687,-0.4914230694594543,2.169088663159815,-0.5517032736594675,1.0,29.505479
66,2.236872683883559,-0.9107016339421702,2.202980673521687,-0.743520329951138,1.0,29.505479
67,2.2707646942454316,-1.1905832438427817,2.2368726838835595,-0.8610263624506922,1.0,29.505479
68,2.3046567046073037,-1.1831204140150395,2.2707646942454316,-0.7817929535429956,1.0,29.505479
69,2.3385487149691757,-0.8489678541373675,2.3046567046073037,-0.4541992980353224,1.0,29.505479
70,2.3724407253310478,-0.2880484710892625,2.3385487149691757,0.05683609536011836,1.0,29.505479
71,2.40633273569292,0.30440931712360686,2.3724407253310478,0.5874460176251113,1.0,29.505479
72,2.440224746054792,0.7340352149198572,2.40633273569292,0.9502347128272909,1.0,29.505479
73,2.474116756416664,0.9008669598811029,2.440224746054792,1.0262425914224271,1.0,29.505479
74,2.508008766778536,0.8391212667671059,2.474116756416664,0.8209437054780561,1.0,29.505479
75,2.5419007771404085,0.6880491131049513,2.5080087667785365,0.45357727818619864,1.0,29.505479
76,2.5757927875022806,0.6174873110711881,2.5419007771404085,0.08896876919693324,1.0,29.505479
77,2.6096847978641526,0.7465458022926735,3.1180649532922344,0.11224317311352477,-15.0,-442.58218500000004
78,2.6435768082260247,1.0850757489631104,3.118064953292234,0.11224317311352726,-14.0,-413.076706
79,2.6774688185878968,1.5151062570749037,2.6096847978641526,-0.22532678368645176,2.0,59.010958
80,2.711360828949769,1.8240098326830907,2.6435768082260247,-0.20951352259406242,2.0,59.010958
81,2.745252839311641,1.790980312999619,2.6774688185878968,-0.20952565190959513,2.0,59.010958
82,2.779144849673513,1.301196911869899,2.711360828949769,-0.3078134173095578,2.0,59.010958
83,2.813036860035385,0.43094887177505936,2.745252839311641,-0.505186081867625,2.0,59.010958
84,2.8469288703972575,-0.5564220844240192,2.7791448496735134,-0.7121315354098482,2.0,59.010958
85,2.8808208807591296,-1.3214045926859306,2.8130368600353854,-0.7923434104752793,2.0,59.010958
86,2.9147128911210016,-1.6149593520579038,2.8469288703972575,-0.6382509895286548,2.0,59.010958
87,2.9486049014828737,-1.4053983126856653,2.8808208807591296,-0.23924549427930508,2.0,59.010958
88,2.9824969118447457,-0.8888898734795945,2.9147128911210016,0.29714030739853947,2.0,59.010958
89,3.016388922206618,-0.37868859507463415,2.9486049014828737,0.7880696857935967,2.0,59.010958
90,3.05028093256849,-0.14185800396224427,2.9824969118447457,1.062579591424812,2.0,59.010958
91,3.084172942930362,-0.2790768388601661,3.016388922206618,1.0448948758543086,2.0,59.010958
92,3.118064953292234,-0.7085047364171421,3.05028093256849,0.7859098000096394,2.0,59.010958
93,3.1519569636541065,-1.2448983615032747,3.0841729429303624,0.42581464577008626,2.0,59.010958
94,3.1858489740159786,-1.7096570503108328,3.660337119082188,-0.02021612554476519,-14.0,-413.076706
95,3.2197409843778506,-2.002361334666606,3.69422912944406,-0.2035609612201894,-14.0,-413.076706
96,3.2536329947397227,-2.1044801401535045,3.1858489740159786,-0.16284907848231944,2.0,59.010958
97,3.2875250051015947,-2.0341350146821635,3.2197409843778506,-0.2337502376000655,2.0,59.010958
98,3.321417015463467,-1.7948458468992723,3.2536329947397227,-0.3737755156719121,2.0,59.010958
99,3.355309025825339,-1.3565639415328004,3.829797170891548,-0.652517632747752,-14.0,-413.076706
100,3.389201036187211,-0.6849278813359799,3.86368918125342,-0.8147759461910371,-14.0,-413.076706
101,3.423093046549083,0.1981109039846847,3.8975811916152923,-0.8321741392177998,-14.0,-413.076706
102,3.4569850569109555,1.1698389959043445,3.931473201977165,-0.6118362902034945,-14.0,-413.076706
103,3.4908770672728275,2.026241429672017,3.4230930465490834,-0.3495409697137439,2.0,59.010958
104,3.5247690776346996,2.5685550330104423,3.4569850569109555,0.1950943108883928,2.0,59.010958
105,3.5586610879965717,2.7039938556416927,3.4908770672728275,0.686755786311096,2.0,59.010958
106,3.5925530983584437,2.4919750329525128,3.5247690776346996,0.9520296432975376,2.0,59.010958
107,3.626445108720316,2.104537986717623,3.5586610879965717,0.9203596707463871,2.0,59.010958
108,3.660337119082188,1.7264678188542062,3.5925530983584437,0.6509582371832185,2.0,59.010958
109,3.69422912944406,1.45623016280441,4.16871727451027,0.37262518517800264,-14.0,-413.076706
110,3.728121139805932,1.2644920582651826,4.202609284872142,0.058167105539813406,-14.0,-413.076706
111,3.7620131501678045,1.0293016931233714,4.236501295234014,-0.11649507717392091,-14.0,-413.076706
112,3.7959051605296765,0.6213245411418337,3.7281211398059324,-0.2852012150229487,2.0,59.010958
113,3.8297971708915486,-0.011685359434455969,3.7620131501678045,-0.3493112935758529,2.0,59.010958
114,3.8636891812534206,-0.8032925388252007,3.7959051605296765,-0.4703564486487804,2.0,59.010958
115,3.8975811916152927,-1.5840624707897795,3.8297971708915486,-0.6525176327477544,2.0,59.010958
116,3.9314732019771648,-2.143294221740654,3.8297971708915486,-0.6525176327477544,3.0,88.516437
117,3.965365212339037,-2.310355024782174,3.8636891812534206,-0.8147759461910392,3.0,88.516437
118,3.999257222700909,-2.022640388074662,3.8975811916152927,-0.8321741392178,3.0,88.516437
119,4.033149233062781,-1.3513205247917432,3.931473201977165,-0.6118362902034945,3.0,88.516437
120,4.0670412434246535,-0.4748963963085239,3.9992572227009093,0.4001391926542757,2.0,59.010958
121,4.1009332537865255,0.38386232354360833,4.033149233062781,0.8809869060890458,2.0,59.010958
122,4.134825264148398,1.0283122121588422,4.0670412434246535,1.1183479978439395,2.0,59.010958
123,4.16871727451027,1.341559723652318,4.1009332537865255,1.053090059173026,2.0,59.010958
124,4.202609284872142,1.3108397212106606,4.134825264148398,0.7540383315901545,2.0,59.010958
125,4.236501295234014,1.016709273281722,4.134825264148398,0.7540383315901545,3.0,88.516437
126,4.270393305595886,0.5879364256492923,4.16871727451027,0.37262518517800264,3.0,88.516437
127,4.304285315957758,0.13928230688141588,4.202609284872142,0.058167105539813406,3.0,88.516437
128,4.33817732631963,-0.2732889994958809,4.236501295234014,-0.11649507717392091,3.0,88.516437
129,4.372069336681502,-0.65008275252201,4.270393305595886,-0.1790183584113102,3.0,88.516437
130,4.405961347043374,-1.0020413396978103,4.304285315957758,-0.22216382606603774,3.0,88.516437
131,4.439853357405246,-1.302522153682383,4.33817732631963,-0.33285491847448945,3.0,88.516437
132,4.473745367767118,-1.478797095026404,4.372069336681502,-0.5275500409668089,3.0,88.516437
133,4.507637378128991,-1.4497000078407642,4.405961347043375,-0.7312344959261589,3.0,88.516437
134,4.541529388490863,-1.177057215936493,3.897581191615293,-0.8321741392177971,19.0,560.604101
135,4.575421398852735,-0.6918065428277231,3.931473201977165,-0.6118362902034945,19.0,560.604101
136,4.609313409214607,-0.08255504645914269,3.9653652123390373,-0.16029642151511778,19.0,560.604101
137,4.643205419576479,0.5352279399881451,3.9992572227009093,0.4001391926542757,19.0,560.604101
138,4.677097429938351,1.0463924536611782,4.575421398852735,0.7793260283613493,3.0,88.516437
139,4.7109894403002235,1.3554950699723247,4.609313409214607,1.0612782321291176,3.0,88.516437
140,4.7448814506620955,1.4082872609369381,4.643205419576479,1.0357117866816463,3.0,88.516437
141,4.778773461023968,1.2159110400196396,4.677097429938351,0.7465255827796919,3.0,88.516437
142,4.81266547138584,0.862857676954378,4.7109894403002235,0.33711263158418675,3.0,88.516437
143,4.846557481747712,0.4774721129673978,4.202609284872142,0.058167105539813406,19.0,560.604101
144,4.880449492109584,0.16880602319533453,4.236501295234014,-0.11649507717392091,19.0,560.604101
145,4.914341502471456,-0.03347389682886646,4.270393305595886,-0.1790183584113102,19.0,560.604101
146,4.948233512833328,-0.19035921864314034,4.304285315957758,-0.22216382606603774,19.0,560.604101
147,4.9821255231952,-0.3992560129930155,4.33817732631963,-0.33285491847448945,19.0,560.604101
148,5.016017533557072,-0.7062769996209763,4.372069336681502,-0.5275500409668089,19.0,560.604101
149,5.049909543918944,-1.0478235106304368,4.948233512833328,-0.7904673402633595,3.0,88.516437
150,5.083801554280817,-1.2697400562632275,4.982125523195201,-0.9514678835963828,3.0,88.516437
151,5.117693564642689,-1.2182146298352223,5.016017533557073,-0.9186416176692068,3.0,88.516437
152,5.151585575004561,-0.8411863302828797,5.049909543918945,-0.6202962708827606,3.0,88.516437
153,5.185477585366433,-0.22828730638503938,5.083801554280817,-0.10296765413558061,3.0,88.516437
154,5.219369595728305,0.43627656607460946,5.117693564642689,0.475763167133747,3.0,88.516437
155,5.253261606090177,0.969305019464026,5.151585575004561,0.917904863865443,3.0,88.516437
156,5.287153616452049,1.2665265809550255,5.185477585366433,1.0815914172269903,3.0,88.516437
157,5.3210456268139215,1.3215741850498284,5.219369595728305,0.9478594492688102,3.0,88.516437
158,5.3549376371757935,1.1911583049047627,5.253261606090177,0.6193601034965965,3.0,88.516437
159,5.388829647537666,0.9415172517797149,5.287153616452049,0.25461286220734936,3.0,88.516437
160,5.422721657899538,0.6117564370936621,5.3210456268139215,-0.02025577682384164,3.0,88.516437
161,5.45661366826141,0.21127088376075948,5.3549376371757935,-0.16969297970020988,3.0,88.516437
162,5.490505678623282,-0.2534146864613283,5.388829647537666,-0.24566202366278228,3.0,88.516437
163,5.524397688985154,-0.7426613383874977,5.422721657899538,-0.33048302127825957,3.0,88.516437
164,5.558289699347026,-1.164416518579855,5.45661366826141,-0.46464678592845066,3.0,88.516437
165,5.592181709708898,-1.391133555562956,5.490505678623282,-0.606577615910488,3.0,88.516437
166,5.62607372007077,-1.3136347220247158,5.761641761518258,0.7046934302123715,-4.0,-118.021916
167,5.659965730432642,-0.9068506697508812,5.558289699347026,-0.4990281376916847,3.0,88.516437
168,5.693857740794515,-0.26546609119831815,5.592181709708899,-0.12974457577415177,3.0,88.516437
169,5.727749751156387,0.4224167053949567,5.626073720070771,0.3630510427080058,3.0,88.516437
170,5.761641761518259,0.9572064036873248,5.659965730432643,0.8078897161741088,3.0,88.516437
171,5.795533771880131,1.21819849943133,5.693857740794515,1.0405639293519118,3.0,88.516437
172,5.829425782242003,1.2063506354027376,5.727749751156387,0.9887071664587401,3.0,88.516437
173,5.863317792603875,1.0159169601855191,5.761641761518259,0.7046934302123641,3.0,88.516437
174,5.897209802965747,0.7593647831017531,5.795533771880131,0.3287493036767544,3.0,88.516437
175,5.931101813327619,0.4970391770757406,5.829425782242003,0.006887878747683525,3.0,88.516437
176,5.9649938236894915,0.21363793864436,5.863317792603875,-0.18648068119754097,3.0,88.516437
177,5.9988858340513636,-0.14976818115139467,5.897209802965747,-0.2770509396707523,3.0,88.516437
178,6.032777844413236,-0.6321520256512226,5.931101813327619,-0.3564606487870511,3.0,88.516437
179,6.066669854775108,-1.196669228076032,5.9649938236894915,-0.5082329520475329,3.0,88.516437
180,6.10056186513698,-1.7167240877527632,5.9988858340513636,-0.739327994282039,3.0,88.516437
181,6.134453875498852,-2.0169240805887276,6.032777844413236,-0.9600182354849482,3.0,88.516437
182,6.168345885860724,-1.9523060834256458,6.066669854775108,-1.0276723299831572,3.0,88.516437
183,6.202237896222596,-1.485199484266293,6.10056186513698,-0.8322222400227453,3.0,88.516437
184,6.236129906584468,-0.7160301501355428,6.134453875498852,-0.3733974766616182,3.0,88.516437
185,6.27002191694634,0.1526504184118987,6.168345885860724,0.2195900275591184,3.0,88.516437
186,6.303913927308213,0.901828452372503,6.202237896222597,0.7428727673946384,3.0,88.516437
187,6.337805937670085,1.3846937064136302,6.236129906584469,1.0180076364424773,3.0,88.516437
188,6.371697948031957,1.570281317971131,6.270021916946341,0.9786252238603281,3.0,88.516437
189,6.405589958393829,1.5227006015124422,6.303913927308213,0.6935057937860001,3.0,88.516437
190,6.439481968755701,1.33671438831718,6.337805937670085,0.3164888388353337,3.0,88.516437
191,6.473373979117573,1.0759705472084393,6.371697948031957,-0.002263692126351598,3.0,88.516437
192,6.507265989479445,0.7535448454327827,6.405589958393829,-0.18977999384149713,3.0,88.516437
193,6.541157999841317,0.3603243557926768,6.439481968755701,-0.26895657369573317,3.0,88.516437
194,6.5750500102031895,-0.08829662420682917,6.473373979117573,-0.3181292353224828,3.0,88.516437
195,6.6089420205650615,-0.5264429441493367,6.507265989479445,-0.40152704256307387,3.0,88.516437
196,6.642834030926934,-0.8528113269901237,6.541157999841317,-0.5154756283730871,3.0,88.516437
197,6.676726041288806,-0.9782962936619519,6.5750500102031895,-0.5841113124579252,3.0,88.516437
198,6.710618051650678,-0.876698968574025,6.6089420205650615,-0.5080085857387521,3.0,88.516437
199,6.74451006201255,-0.6042351364235907,6.642834030926934,-0.23613447234042093,3.0,88.516437
200,6.778402072374422,-0.26981096350092365,6.676726041288806,0.18496577714234114,3.0,88.516437
201,6.812294082736294,0.028154753874903925,6.710618051650678,0.6192305159023216,3.0,88.516437
202,6.846186093098166,0.25359957364139707,6.74451006201255,0.9057676356462158,3.0,88.516437
203,6.880078103460039,0.43303437718547205,6.778402072374423,0.942437523759009,3.0,88.516437
204,6.913970113821911,0.6042794569598027,6.812294082736295,0.7370738093127313,3.0,88.516437
205,6.947862124183783,0.7571908903012913,6.846186093098167,0.39544464432400644,3.0,88.516437
206,6.981754134545655,0.8169714076300573,6.880078103460039,0.055482466349526506,3.0,88.516437
207,7.015646144907527,0.6858277231372647,6.913970113821911,-0.18965202001881665,3.0,88.516437
208,7.049538155269399,0.31360272418718216,6.947862124183783,-0.3322622651945126,3.0,88.516437
209,7.083430165631271,-0.2511707704548593,6.981754134545655,-0.4318279121163273,3.0,88.516437
210,7.117322175993143,-0.8625499630362832,7.015646144907527,-0.5527538216150907,3.0,88.516437
211,7.151214186355015,-1.330904546362728,7.049538155269399,-0.7010820933595954,3.0,88.516437
212,7.185106196716887,-1.5020313774392473,7.083430165631271,-0.8044512090533877,3.0,88.516437
213,7.2189982070787595,-1.3232488145677688,7.117322175993143,-0.7526420610984447,3.0,88.516437
214,7.252890217440632,-0.8639511034578219,7.151214186355015,-0.47579367896014974,3.0,88.516437
215,7.286782227802504,-0.28006135161059903,7.185106196716887,-0.008932844411544391,3.0,88.516437
216,7.320674238164376,0.2586142964644694,7.185106196716887,-0.008932844411544391,4.0,118.021916
217,7.354566248526248,0.6391039845928077,7.2189982070787595,0.5042201377926718,4.0,118.021916
218,7.38845825888812,0.8374926809840044,7.286782227802504,0.9787575878358483,3.0,88.516437
219,7.422350269249992,0.8993631777170291,7.320674238164376,0.8001068254692008,3.0,88.516437
220,7.456242279611864,0.8855199124331536,7.354566248526248,0.4518228828820288,3.0,88.516437
221,7.490134289973737,0.8197748329831883,7.388458258888121,0.09261681267673491,3.0,88.516437
222,7.524026300335609,0.6730251296312254,7.388458258888121,0.09261681267673491,4.0,118.021916
223,7.557918310697481,0.39494427624200706,7.422350269249993,-0.16123936734540376,4.0,118.021916
224,7.591810321059353,-0.02611271380026057,7.456242279611865,-0.28940302509302257,4.0,118.021916
225,7.625702331421225,-0.5164344118232626,7.490134289973737,-0.3538197549536425,4.0,118.021916
226,7.659594341783097,-0.9225380528702264,7.524026300335609,-0.4322896937257067,4.0,118.021916
227,7.693486352144969,-1.0767449675460319,7.557918310697481,-0.5467809926581817,4.0,118.021916
228,7.727378362506841,-0.8879568896931661,7.591810321059353,-0.6362640028862824,4.0,118.021916
229,7.761270372868713,-0.400496922007049,7.625702331421225,-0.5942008553999684,4.0,118.021916
230,7.795162383230585,0.21882353161611767,7.659594341783097,-0.3473514807648455,4.0,118.021916
231,7.8290543935924575,0.75914295624409,7.693486352144969,0.07726315546969822,4.0,118.021916
232,7.8629464039543295,1.061813894262612,7.727378362506841,0.5456037312662654,4.0,118.021916
233,7.896838414316202,1.079179961491496,7.761270372868713,0.8796626416481395,4.0,118.021916
234,7.930730424678074,0.8690461468606105,7.795162383230585,0.9524134085941345,4.0,118.021916
235,7.964622435039946,0.5389559213718553,7.8290543935924575,0.7543075711606916,4.0,118.021916
236,7.998514445401818,0.17978335727019654,7.8629464039543295,0.3901701793627129,4.0,118.021916
237,8.03240645576369,-0.1729023839635274,7.896838414316202,0.011834508395520126,4.0,118.021916
238,8.066298466125563,-0.5315017306094729,8.16797449721118,-0.34866047510892006,-3.0,-88.516437
239,8.100190476487434,-0.9115569991376902,8.201866507573051,0.1043325862240687,-3.0,-88.516437
240,8.134082486849307,-1.2799338951716177,8.235758517934924,0.5795042485038928,-3.0,-88.516437
241,8.167974497211178,-1.5339280402623832,8.03240645576369,-0.5937600354689344,4.0,118.021916
242,8.201866507573051,-1.5346700989625959,8.066298466125563,-0.6884270700395158,4.0,118.021916
243,8.235758517934922,-1.1844859185553638,8.100190476487434,-0.736303959837812,4.0,118.021916
244,8.269650528296795,-0.5039915586363463,8.134082486849307,-0.6421906050955818,4.0,118.021916
245,8.303542538658666,0.34315165873966835,8.405218569744283,0.127649156430712,-3.0,-88.516437
246,8.33743454902054,1.101796520614496,8.439110580106156,-0.12353434019284841,-3.0,-88.516437
247,8.371326559382412,1.5315181150581834,8.47300259046803,-0.2774041821261214,-3.0,-88.516437
248,8.405218569744283,1.5134122781491937,8.5068946008299,-0.38188095246711695,-3.0,-88.516437
249,8.439110580106156,1.1025248451940655,8.540786611191773,-0.4836006894770599,-3.0,-88.516437
250,8.473002590468028,0.49876483812066175,8.574678621553645,-0.5761601730500119,-3.0,-88.516437
251,8.5068946008299,-0.05036112966407187,8.608570631915518,-0.5948861356989849,-3.0,-88.516437
252,8.540786611191772,-0.36745892254454343,8.642462642277389,-0.46302176998995814,-3.0,-88.516437
253,8.574678621553645,-0.4228853594670908,8.676354652639262,-0.15765023520496046,-3.0,-88.516437
254,8.608570631915516,-0.3297145156604526,8.710246663001133,0.2522234043997903,-3.0,-88.516437
255,8.642462642277389,-0.25785569760843696,8.5068946008299,-0.38188095246711695,4.0,118.021916
256,8.67635465263926,-0.3172906249241973,8.540786611191772,-0.4836006894770551,4.0,118.021916
257,8.710246663001133,-0.48134836364300787,8.574678621553645,-0.5761601730500119,4.0,118.021916
258,8.744138673363004,-0.5990598180307234,8.608570631915516,-0.5948861356989917,4.0,118.021916
259,8.778030683724877,-0.4928302965935509,8.642462642277389,-0.46302176998995814,4.0,118.021916
260,8.811922694086748,-0.0841414739543035,8.67635465263926,-0.15765023520498195,4.0,118.021916
261,8.845814704448621,0.5326220986888144,8.710246663001133,0.2522234043997903,4.0,118.021916
262,8.879706714810492,1.1217152614484023,8.744138673363004,0.6261641115865761,4.0,118.021916
263,8.913598725172365,1.4308729182884905,8.778030683724877,0.8224704375207299,4.0,118.021916
264,8.947490735534236,1.3334044652421426,8.811922694086748,0.774106709272383,4.0,118.021916
265,8.98138274589611,0.895762549088375,8.845814704448621,0.5216224953912895,4.0,118.021916
266,9.015274756257982,0.3262798637843906,8.879706714810494,0.1831255743055196,4.0,118.021916
267,9.049166766619853,-0.15929111606983692,8.913598725172365,-0.11711703862833943,4.0,118.021916
268,9.083058776981726,-0.46280912158599025,8.947490735534238,-0.31454843232578344,4.0,118.021916
269,9.116950787343598,-0.6342326408823153,9.218626818429215,0.32339376838330786,-3.0,-88.516437
270,9.15084279770547,-0.7914258944270923,9.252518828791088,0.7312942858995245,-3.0,-88.516437
271,9.184734808067342,-0.9952023718956537,9.049166766619853,-0.5998623132010565,4.0,118.021916
272,9.218626818429215,-1.1795553692444158,9.083058776981726,-0.6852995459846494,4.0,118.021916
273,9.252518828791086,-1.1942348551920057,9.116950787343598,-0.6813913035257096,4.0,118.021916
274,9.286410839152959,-0.9276686833478187,9.15084279770547,-0.5052799929629941,4.0,118.021916
275,9.32030284951483,-0.41295038792355326,9.184734808067342,-0.14153991867252927,4.0,118.021916
276,9.354194859876703,0.16936515537391075,9.218626818429215,0.32339376838330786,4.0,118.021916
277,9.388086870238574,0.5986238605298936,9.252518828791086,0.731294285899514,4.0,118.021916
278,9.421978880600447,0.7518229820803121,9.286410839152959,0.9322901279729282,4.0,118.021916
279,9.455870890962318,0.6669112089480301,9.32030284951483,0.8647368161136519,4.0,118.021916
280,9.489762901324191,0.4866542570115819,9.354194859876703,0.5832457692694846,4.0,118.021916
281,9.523654911686062,0.334675261213087,9.388086870238574,0.2185485896044317,4.0,118.021916
282,9.557546922047935,0.22671393999525122,9.421978880600447,-0.1013802061057123,4.0,118.021916
283,9.591438932409808,0.08417993537938868,9.45587089096232,-0.31591927056195496,4.0,118.021916
284,9.62533094277168,-0.17150017706671142,9.489762901324191,-0.4424350766353954,4.0,118.021916
285,9.659222953133552,-0.5280403680450694,9.523654911686064,-0.5321871529102097,4.0,118.021916
286,9.693114963495423,-0.8671728992587313,9.557546922047935,-0.6081251708124455,4.0,118.021916
287,9.727006973857296,-1.0314762654420018,9.591438932409808,-0.6324955512226665,4.0,118.021916
288,9.760898984219168,-0.9195364191850839,9.62533094277168,-0.5301332554800019,4.0,118.021916
289,9.79479099458104,-0.543247733243294,9.659222953133552,-0.25236939633330324,4.0,118.021916
290,9.828683004942912,-0.015126845484593972,9.930359036028529,-0.2190213963144008,-3.0,-88.516437
291,9.862575015304785,0.5158010263381851,9.964251046390402,-0.39620367858722705,-3.0,-88.516437
292,9.896467025666656,0.9306171461218794,9.760898984219168,0.8898461997998481,4.0,118.021916
293,9.930359036028529,1.169765643214545,9.79479099458104,0.9353044450828228,4.0,118.021916
294,9.9642510463904,1.220774583469267,9.828683004942912,0.7380440851458252,4.0,118.021916
295,9.998143056752273,1.090676148794525,9.862575015304785,0.39879608352571144,4.0,118.021916
296,10.032035067114144,0.792983569393281,9.896467025666656,0.04996413967743894,4.0,118.021916
297,10.065927077476017,0.3596586671269504,10.404847181094738,-0.06212710347972072,-10.0,-295.05479
298,10.099819087837888,-0.13596748383803584,10.438739191456609,-0.3005083071109057,-10.0,-295.05479
299,10.133711098199761,-0.5724727454390167,10.472631201818482,-0.4617357154958373,-10.0,-295.05479
300,10.167603108561634,-0.8099209688006775,10.235387129285378,0.7168952092953705,-2.0,-59.010958
301,10.201495118923505,-0.7511415336065297,10.26927913964725,0.9263615128872313,-2.0,-59.010958
302,10.235387129285378,-0.4030217632084948,10.303171150009122,0.8762772611858111,-2.0,-59.010958
303,10.26927913964725,0.10425084402724073,10.60819924326597,-0.6160560426373228,-10.0,-295.05479
304,10.303171150009122,0.5644832296771043,10.642091253627843,-0.34095331020230335,-10.0,-295.05479
305,10.337063160370993,0.793070500134171,10.675983263989714,0.07561561613841397,-10.0,-295.05479
306,10.370955170732866,0.7199335504797875,10.709875274351587,0.5179558675095705,-10.0,-295.05479
307,10.404847181094738,0.41881373572301117,10.472631201818482,-0.4617357154958373,-2.0,-59.010958
308,10.43873919145661,0.05373839353435393,10.506523212180355,-0.5844036306975016,-2.0,-59.010958
309,10.472631201818482,-0.22158508152269693,10.540415222542226,-0.6819290191619433,-2.0,-59.010958
310,10.506523212180355,-0.347425886774829,10.574307232904099,-0.7155046997947292,-2.0,-59.010958
311,10.540415222542226,-0.37706222027686354,11.353823471227157,0.21824811574496927,-24.0,-708.131496
312,10.574307232904099,-0.4272421450788907,11.38771548158903,-0.0901634870858822,-24.0,-708.131496
313,10.60819924326597,-0.594998784221413,11.421607491950901,-0.3076452033113118,-24.0,-708.131496
314,10.642091253627843,-0.8890794459630196,11.455499502312774,-0.4462066517279037,-24.0,-708.131496
315,10.675983263989714,-1.2118382521874609,11.489391512674645,-0.546797685650374,-24.0,-708.131496
316,10.709875274351587,-1.4007786539238252,11.523283523036518,-0.6230729991682428,-24.0,-708.131496
317,10.743767284713458,-1.3102676774933664,11.55717553339839,-0.6333632397690143,-24.0,-708.131496
318,10.777659295075331,-0.8931064566098272,11.591067543760262,-0.5044547136400539,-24.0,-708.131496
319,10.811551305437204,-0.23772868195636593,11.624959554122135,-0.19303989922423537,-24.0,-708.131496
320,10.845443315799075,0.4637709750229069,11.658851564484007,0.2589784961228362,-24.0,-708.131496
321,10.879335326160948,1.0037586217932932,11.69274357484588,0.7192530510616,-24.0,-708.131496
322,10.91322733652282,1.2549582895186193,11.455499502312772,-0.4462066517278964,-16.0,-472.087664
323,10.947119346884692,1.21798832576694,11.489391512674645,-0.546797685650374,-16.0,-472.087664
324,10.981011357246564,0.9935918349407155,11.523283523036516,-0.6230729991682388,-16.0,-472.087664
325,11.014903367608436,0.702221945261082,12.065555688826471,-0.9584295901406711,-31.0,-914.669849
326,11.048795377970308,0.4095730655965402,12.099447699188342,-0.39842839287311005,-31.0,-914.669849
327,11.08268738833218,0.11048655098477686,12.133339709550215,0.4021991287136655,-31.0,-914.669849
328,11.116579398694052,-0.22279627229272475,11.89609563701711,-0.41232695734957714,-23.0,-678.626017
329,11.150471409055925,-0.5731270410273913,11.218255429779669,0.6783879814889178,-2.0,-59.010958
330,11.184363419417796,-0.8503827807027339,11.25214744014154,0.8743781470096155,-2.0,-59.010958
331,11.218255429779669,-0.9273814113243629,11.286039450503413,0.8186207767059082,-2.0,-59.010958
332,11.25214744014154,-0.7138145867644927,11.319931460865284,0.5602813830228579,-2.0,-59.010958
333,11.286039450503413,-0.21702722630375165,11.353823471227157,0.21824811574496927,-2.0,-59.010958
334,11.319931460865284,0.44735766039046804,11.387715481589028,-0.09016348708586597,-2.0,-59.010958
335,11.353823471227157,1.0973111857144022,11.421607491950901,-0.3076452033113118,-2.0,-59.010958
336,11.38771548158903,1.5534478641026492,11.455499502312774,-0.4462066517279037,-2.0,-59.010958
337,11.421607491950901,1.7021766334300392,11.489391512674645,-0.546797685650374,-2.0,-59.010958
338,11.455499502312774,1.5277424804376956,11.523283523036518,-0.6230729991682428,-2.0,-59.010958
339,11.489391512674645,1.102746776098097,11.55717553339839,-0.6333632397690143,-2.0,-59.010958
340,11.523283523036518,0.544315557906538,11.591067543760262,-0.5044547136400539,-2.0,-59.010958
341,11.55717553339839,-0.04013137524985161,11.624959554122134,-0.19303989922425907,-2.0,-59.010958
342,11.591067543760262,-0.5866122827572242,11.421607491950901,-0.3076452033113118,5.0,147.527395
343,11.624959554122134,-1.0691713283358268,11.692743574845878,0.7192530510615841,-2.0,-59.010958
344,11.658851564484007,-1.4648763151979887,11.72663558520775,1.0216825934679108,-2.0,-59.010958
345,11.692743574845878,-1.723145205338984,11.760527595569622,1.0529890683055003,-2.0,-59.010958
346,11.72663558520775,-1.7716928247002355,11.794419605931495,0.8125739571890113,-2.0,-59.010958
347,11.760527595569622,-1.5603933786029334,11.828311616293366,0.4041814649174646,-2.0,-59.010958
348,11.794419605931495,-1.108053768387087,11.624959554122134,-0.19303989922425907,5.0,147.527395
349,11.828311616293366,-0.510149855095711,11.658851564484005,0.25897849612281254,5.0,147.527395
350,11.862203626655239,0.10154827862258393,11.896095637017112,-0.412326957349593,-1.0,-29.505479
351,11.89609563701711,0.614686538900454,11.929987647378983,-0.714896533484586,-1.0,-29.505479
352,11.929987647378983,0.9658175932843107,11.997771668102727,-1.1522051057574956,-2.0,-59.010958
353,11.963879657740856,1.132144869427836,12.0316636784646,-1.190074251745968,-2.0,-59.010958
354,11.997771668102727,1.1082957770234676,12.0316636784646,-1.190074251745968,-1.0,-29.505479
355,12.0316636784646,0.8970188049417638,12.065555688826473,-0.9584295901406418,-1.0,-29.505479
356,12.065555688826471,0.5217411895859689,12.133339709550215,0.4021991287136655,-2.0,-59.010958
357,12.099447699188344,0.044962797669326246,12.167231719912088,1.2092399868454653,-2.0,-59.010958
358,12.133339709550215,-0.4305386721839824,12.404475792445192,-1.180923715643319,-8.0,-236.043832
359,12.167231719912088,-0.7880050059000392,12.472259813168938,-1.64924037118028,-9.0,-265.549311
360,12.20112373027396,-0.9398921547667319,12.472259813168936,-1.649240371180284,-8.0,-236.043832
361,12.235015740635832,-0.8640793406070104,12.506151823530809,-1.5718840042179416,-8.0,-236.043832
362,12.268907750997704,-0.6119468971879928,12.54004383389268,-1.2000850495751536,-8.0,-236.043832
363,12.302799761359577,-0.28240026195151763,12.607827854616426,0.3337953418717158,-9.0,-265.549311
364,12.336691771721448,0.025365989305385674,12.84507192714953,-0.33816207532486714,-15.0,-442.58218500000004
365,12.37058378208332,0.25448274522890135,12.878963937511402,-0.7750176115892964,-15.0,-442.58218500000004
366,12.404475792445192,0.4037405903401643,12.912855947873274,-1.1021207846465444,-15.0,-442.58218500000004
367,12.438367802807065,0.504755515880357,12.946747958235147,-1.2961886532077107,-15.0,-442.58218500000004
368,12.472259813168936,0.580142572300136,12.980639968597018,-1.2775687136172498,-15.0,-442.58218500000004
369,12.506151823530809,0.6135880173417263,13.01453197895889,-0.9581733301524209,-15.0,-442.58218500000004
370,12.54004383389268,0.5554776523202815,13.048423989320762,-0.3324542866618729,-15.0,-442.58218500000004
371,12.573935844254553,0.3632189517762147,13.082315999682635,0.46302554647184246,-15.0,-442.58218500000004
372,12.607827854616426,0.04990439540403017,13.353452082577613,-0.913333593199712,-22.0,-649.120538
373,12.641719864978297,-0.29440476778790164,13.387344092939484,-1.1402834635413845,-22.0,-649.120538
374,12.67561187534017,-0.5308011343871114,13.421236103301357,-1.2651180319562707,-22.0,-649.120538
375,12.709503885702041,-0.5400926311645994,13.455128113663228,-1.2163908754038966,-22.0,-649.120538
376,12.743395896063914,-0.2923606468205638,13.489020124025101,-0.902695888486985,-22.0,-649.120538
377,12.777287906425785,0.12871204121755284,13.522912134386972,-0.30957506590971623,-22.0,-649.120538
378,12.811179916787658,0.5657368843712802,13.556804144748845,0.4358420671819719,-22.0,-649.120538
379,12.84507192714953,0.866548097599056,13.590696155110717,1.0934490638555696,-22.0,-649.120538
380,12.878963937511402,0.9503731584354362,13.861832238005693,-1.0793743790318515,-29.0,-855.658891
381,12.912855947873274,0.8226122814988222,13.895724248367564,-1.03452485533527,-29.0,-855.658891
382,12.946747958235147,0.5407772530526214,13.929616258729437,-0.8044069951821756,-29.0,-855.658891
383,12.980639968597018,0.16804470291115142,13.963508269091308,-0.3442882993451896,-29.0,-855.658891
384,13.01453197895889,-0.2482308622778353,13.997400279453181,0.30632606883814323,-29.0,-855.658891
385,13.048423989320762,-0.6634619710023313,14.031292289815052,0.9894134084360731,-29.0,-855.658891
386,13.082315999682635,-1.0104556735655754,14.065184300176925,1.4825014232435665,-29.0,-855.658891
387,13.116208010044506,-1.195818544967095,14.336320383071902,-1.35716062275228,-36.0,-1062.197244
388,13.150100020406379,-1.1346428178597954,14.370212393433775,-1.3531101601644333,-36.0,-1062.197244
389,13.183992030768252,-0.8052644256012006,14.404104403795648,-1.0776139450984847,-36.0,-1062.197244
390,13.217884041130123,-0.28280882602906393,14.437996414157519,-0.5047382515739656,-36.0,-1062.197244
391,13.251776051491996,0.27979205038052984,14.471888424519392,0.26147656249394197,-36.0,-1062.197244
392,13.285668061853867,0.7177524784798984,14.505780434881263,0.9929637059439637,-36.0,-1062.197244
393,13.31956007221574,0.9266741008944592,14.539672445243136,1.4364466724516476,-36.0,-1062.197244
394,13.353452082577611,0.8947765016540066,14.573564455605007,1.4454650528073765,-36.0,-1062.197244
395,13.387344092939484,0.6780592050788405,14.60745646596688,1.0550402587639973,-36.0,-1062.197244
396,13.421236103301355,0.34372141665362865,14.878592548861857,-0.8815546476849655,-43.0,-1268.735597
397,13.455128113663228,-0.07031986332087417,14.91248455922373,-0.23988647394515875,-43.0,-1268.735597
398,13.4890201240251,-0.5480786061332092,14.9463765695856,0.5973829637133711,-43.0,-1268.735597
399,13.522912134386972,-1.0514872954047765,14.980268579947474,1.3848098683620418,-43.0,-1268.735597
400,13.556804144748844,-1.4852319467332682,15.251404662842448,-1.3249777831769607,-50.0,-1475.27395
401,13.590696155110717,-1.7108265314928843,15.285296673204321,-1.4598939471426131,-50.0,-1475.27395
402,13.624588165472588,-1.6080731472044436,15.319188683566193,-1.4080168472568773,-50.0,-1475.27395
403,13.65848017583446,-1.14116350782068,15.353080693928066,-1.0775265584990246,-50.0,-1475.27395
404,13.692372186196332,-0.385965910227323,15.386972704289937,-0.43820289989556727,-50.0,-1475.27395
405,13.726264196558205,0.4899793188332375,15.42086471465181,0.3987750871426005,-50.0,-1475.27395
406,13.760156206920078,1.2741687867220788,15.454756725013683,1.1908628417942513,-50.0,-1475.27395
407,13.794048217281949,1.7636608580199709,15.692000797546786,-0.9195401240472829,-56.0,-1652.306824
408,13.827940227643822,1.8227922820787879,15.72589280790866,-1.15816981379929,-56.0,-1652.306824
409,13.861832238005693,1.4381767652651496,15.759784818270532,-1.2731749514893473,-56.0,-1652.306824
410,13.895724248367566,0.7478641218048784,15.793676828632403,-1.1993523625664944,-56.0,-1652.306824
411,13.929616258729437,0.012982390525335792,15.827568838994274,-0.8443866767781216,-56.0,-1652.306824
412,13.96350826909131,-0.4782029378765847,15.861460849356149,-0.18919887989599665,-56.0,-1652.306824
413,13.997400279453181,-0.5384129586145596,12.099447699188342,-0.39842839287311005,56.0,1652.306824
414,14.031292289815054,-0.17259522607789007,12.133339709550217,0.4021991287137078,56.0,1652.306824
415,14.065184300176925,0.4241635918990539,12.167231719912088,1.2092399868454653,56.0,1652.306824
416,14.099076310538798,0.9627339710607824,12.235015740635832,1.8146393554469973,55.0,1622.801345
417,14.13296832090067,1.193328816198248,12.268907750997704,1.4242819580581658,55.0,1622.801345
418,14.166860331262543,1.0034481474296595,12.302799761359577,0.7349135070715972,55.0,1622.801345
419,14.200752341624414,0.4409173462492572,12.336691771721448,-0.02748182414411483,55.0,1622.801345
420,14.234644351986287,-0.32700546036356,12.37058378208332,-0.6894539840498521,55.0,1622.801345
421,14.268536362348158,-1.0806811457131305,12.607827854616424,0.3337953418716707,49.0,1445.768471
422,14.30242837271003,-1.6116586891096638,12.641719864978297,1.1462765884485429,49.0,1445.768471
423,14.336320383071902,-1.7740376136609748,12.675611875340168,1.6644666989414203,49.0,1445.768471
424,14.370212393433775,-1.5234254957786242,12.709503885702041,1.7460934178856715,49.0,1445.768471
425,14.404104403795648,-0.9354716407542197,12.777287906425787,0.8425333318499807,48.0,1416.262992
426,14.437996414157519,-0.18784180375124693,12.811179916787658,0.21377048955130215,48.0,1416.262992
427,14.471888424519392,0.5005752969559185,13.048423989320764,-0.3324542866618312,42.0,1239.230118
428,14.505780434881263,0.9521657733184935,13.082315999682635,0.46302554647184246,42.0,1239.230118
429,14.539672445243136,1.0930241631926882,13.116208010044508,1.1800786829712933,42.0,1239.230118
430,14.573564455605007,0.9620099123823219,13.150100020406379,1.5728294598061614,42.0,1239.230118
431,14.60745646596688,0.6663239192209759,13.183992030768252,1.5234050151059075,42.0,1239.230118
432,14.641348476328751,0.31554584214228903,13.217884041130123,1.0951877726057506,42.0,1239.230118
433,14.675240486690624,-0.024872855004259235,13.251776051491996,0.4802429276704907,42.0,1239.230118
434,14.709132497052495,-0.33699786550251504,13.52291213438697,-0.30957506590974726,35.0,1032.691765
435,14.743024507414368,-0.6183922055548922,13.556804144748845,0.4358420671819719,35.0,1032.691765
436,14.77691651777624,-0.846912158011533,13.590696155110717,1.0934490638555696,35.0,1032.691765
437,14.810808528138113,-0.9737816176859383,13.624588165472588,1.425158322795882,35.0,1032.691765
438,14.844700538499984,-0.9502717164429123,13.658480175834459,1.3222752126377741,35.0,1032.691765
439,14.878592548861857,-0.764267139063608,13.692372186196334,0.8584463691431041,35.0,1032.691765
440,14.912484559223728,-0.45607716547384614,13.726264196558205,0.23445695910659886,35.0,1032.691765
441,14.9463765695856,-0.10127088121511377,13.997400279453181,0.30632606883814323,28.0,826.153412
442,14.980268579947474,0.22614995665474322,14.031292289815054,0.989413408436109,28.0,826.153412
443,15.014160590309345,0.483824559950402,14.065184300176925,1.4825014232435665,28.0,826.153412
444,15.048052600671218,0.6645443621571666,14.099076310538798,1.611690051534657,28.0,826.153412
445,15.081944611033089,0.7741159569972461,14.13296832090067,1.3448805086760496,28.0,826.153412
446,15.115836621394962,0.8045138318819968,14.166860331262543,0.799501921407012,28.0,826.153412
447,15.149728631756833,0.7272704842016325,14.200752341624414,0.16338168618047644,28.0,826.153412
448,15.183620642118706,0.5162664257445301,14.471888424519392,0.26147656249394197,21.0,619.615059
449,15.217512652480577,0.18490526085863013,14.505780434881263,0.9929637059439637,21.0,619.615059
450,15.25140466284245,-0.19174653390346333,14.539672445243136,1.4364466724516476,21.0,619.615059
451,15.285296673204321,-0.4922579895435621,14.573564455605007,1.4454650528073765,21.0,619.615059
452,15.319188683566194,-0.5993728415303855,14.60745646596688,1.0550402587639973,21.0,619.615059
453,15.353080693928066,-0.4585779199409819,14.641348476328751,0.4475627688059617,21.0,619.615059
454,15.386972704289938,-0.11009030010997822,14.91248455922373,-0.23988647394515875,14.0,413.076706
455,15.42086471465181,0.32523791743854025,14.9463765695856,0.5973829637133711,14.0,413.076706
456,15.454756725013683,0.6990701206429953,14.980268579947474,1.3848098683620418,14.0,413.076706
457,15.488648735375554,0.8990471888958644,15.014160590309345,1.8504194133730765,14.0,413.076706
458,15.522540745737427,0.8880730022236499,15.048052600671218,1.836012909949122,14.0,413.076706
459,15.5564327560993,0.699323473550317,15.08194461103309,1.3761014709714774,14.0,413.076706
460,15.59032476646117,0.3957320373095877,15.115836621394962,0.6645241911874249,14.0,413.076706
461,15.624216776823044,0.027835864761217105,15.149728631756835,-0.06353429495775473,14.0,413.076706
462,15.658108787184915,-0.37590969865287926,15.42086471465181,0.3987750871426005,7.0,206.538353
463,15.692000797546788,-0.781398945893792,15.454756725013683,1.1908628417942513,7.0,206.538353
464,15.725892807908659,-1.1150205051297737,15.488648735375554,1.6718185564591785,7.0,206.538353
465,15.759784818270532,-1.2653291145166183,15.522540745737427,1.6895486658629202,7.0,206.538353
466,15.793676828632403,-1.1341065628764952,15.556432756099298,1.2809421145979591,7.0,206.538353
467,15.827568838994276,-0.7065833121298695,15.59032476646117,0.6351017686578158,7.0,206.538353
468,15.861460849356147,-0.08753428296765507,15.624216776823042,-0.02415142687549987,7.0,206.538353
469,15.89535285971802,0.5307098825051549,15.89535285971802,0.636156793528185,0.0,0.0
470,15.929244870079891,0.9536961913529058,15.929244870079891,1.3725579755976927,0.0,0.0
471,15.963136880441764,1.069743163960384,15.963136880441764,1.7502048220416881,0.0,0.0
472,15.997028890803636,0.8823640820298795,15.997028890803636,1.6311517899164232,0.0,0.0
473,16.03092090116551,0.47924984921975816,16.03092090116551,1.0791903333229977,0.0,0.0
474,16.06481291152738,-0.028473916075632412,16.06481291152738,0.3112678539176246,0.0,0.0
475,16.09870492188925,-0.5506193144058529,16.09870492188925,-0.43072718106983054,0.0,0.0
476,16.132596932251126,-1.0241196669565085,16.132596932251126,-0.9964296425045063,0.0,0.0
477,16.166488942612997,-1.3932506910693958,16.166488942612997,-1.3575613933839585,0.0,0.0
478,16.200380952974868,-1.5921015094063293,16.200380952974868,-1.5481038824588798,0.0,0.0
479,16.234272963336743,-1.549800417824939,16.234272963336743,-1.5769753321318447,0.0,0.0
480,16.268164973698614,-1.219314816135846,16.268164973698614,-1.3916441106403001,0.0,0.0
481,16.302056984060485,-0.6126944183225522,16.302056984060485,-0.925260510540163,0.0,0.0
482,16.335948994422356,0.18105259290805686,16.335948994422356,-0.18877254920459086,0.0,0.0
483,16.36984100478423,1.010322178858004,16.36984100478423,0.6714113518954771,0.0,0.0
484,16.403733015146102,1.703076218332176,16.403733015146102,1.4071305853234466,0.0,0.0
485,16.437625025507973,2.116873516075421,16.437625025507973,1.7811609175670657,0.0,0.0
486,16.471517035869844,2.175599367389786,16.471517035869844,1.6853624382325443,0.0,0.0
487,16.50540904623172,1.881863567336606,16.50540904623172,1.18620337998189,0.0,0.0
488,16.53930105659359,1.3062436809744722,16.742653118764824,-0.8662133366982391,-6.0,-177.032874
489,16.57319306695546,0.56323155186393,16.776545129126696,-0.19885334654573486,-6.0,-177.032874
490,16.607085077317333,-0.213431175715312,16.810437139488567,0.6170918000253026,-6.0,-177.032874
491,16.640977087679207,-0.88841188446266,16.607085077317336,-0.8258536379204257,1.0,29.505479
492,16.67486909804108,-1.3385976308039826,16.640977087679207,-1.2064642019262166,1.0,29.505479
493,16.70876110840295,-1.473371076908612,16.67486909804108,-1.3617828810560546,1.0,29.505479
494,16.742653118764824,-1.265572062787089,16.708761108402953,-1.2598637304636693,1.0,29.505479
495,16.776545129126696,-0.7797563138509418,16.742653118764824,-0.8662133366982391,1.0,29.505479
496,16.810437139488567,-0.17101093803618175,16.776545129126696,-0.19885334654573486,1.0,29.505479
497,16.844329149850438,0.3638516317315314,16.810437139488567,0.6170918000253026,1.0,29.505479
498,16.878221160212313,0.6688446505908656,16.84432914985044,1.356782299766355,1.0,29.505479
499,16.912113170574184,0.6981274085211113,16.878221160212313,1.7815559966172068,1.0,29.505479
500,16.946005180936055,0.5232092318224595,16.912113170574184,1.754773357368511,1.0,29.505479
501,16.979897191297926,0.2690924420748129,16.946005180936055,1.3090740751282113,1.0,29.505479
502,17.0137892016598,0.024253489767338505,16.97989719129793,0.6184640958615475,1.0,29.505479
503,17.047681212021672,-0.2080423671800584,17.0137892016598,-0.10289394121371666,1.0,29.505479
504,17.081573222383543,-0.4799954487132735,17.047681212021672,-0.7031017024815122,1.0,29.505479
505,17.115465232745414,-0.8154070216730998,17.081573222383543,-1.1295405339797875,1.0,29.505479
506,17.14935724310729,-1.1403980386875525,17.115465232745418,-1.387866982785325,1.0,29.505479
507,17.18324925346916,-1.290149583817395,17.14935724310729,-1.4705223509781504,1.0,29.505479
508,17.21714126383103,-1.0991701853973421,17.18324925346916,-1.3235466974679433,1.0,29.505479
509,17.251033274192903,-0.5202529135475764,17.21714126383103,-0.8867015032236248,1.0,29.505479
510,17.284925284554777,0.3095305053932569,17.251033274192906,-0.1779419207005574,1.0,29.505479
511,17.31881729491665,1.1083730834752705,17.284925284554777,0.6508900770238303,1.0,29.505479
512,17.35270930527852,1.5805284286201984,17.31881729491665,1.3463832250210164,1.0,29.505479
513,17.386601315640394,1.564207195023891,17.352709305278523,1.6676954915019466,1.0,29.505479
514,17.420493326002266,1.109230945783635,17.386601315640394,1.5101321081413526,1.0,29.505479
515,17.454385336364137,0.43943671440217685,17.420493326002266,0.9537766117819011,1.0,29.505479
516,17.488277346726008,-0.1737632376049863,17.454385336364137,0.20637958917241414,1.0,29.505479
517,17.522169357087883,-0.5465020435343628,17.48827734672601,-0.5140531147411863,1.0,29.505479
518,17.556061367449754,-0.6467201299613223,17.522169357087883,-1.07294393303742,1.0,29.505479
519,17.589953377811625,-0.5611439687429204,17.556061367449754,-1.4318356995342039,1.0,29.505479
520,17.623845388173496,-0.40420833400657397,17.589953377811625,-1.5905726592440383,1.0,29.505479
521,17.65773739853537,-0.24026600872203294,17.6238453881735,-1.523976435406931,1.0,29.505479
522,17.691629408897242,-0.0694985993226333,17.65773739853537,-1.1774388019136148,1.0,29.505479
523,17.725521419259113,0.12757396903299534,17.691629408897242,-0.531259702757714,1.0,29.505479
524,17.759413429620984,0.3377815395333584,17.725521419259113,0.32139685617801017,1.0,29.505479
525,17.79330543998286,0.5045917468963225,17.759413429620988,1.159378262100314,1.0,29.505479
526,17.82719745034473,0.5641922640075663,17.79330543998286,1.7141432390580946,1.0,29.505479
527,17.8610894607066,0.49049523275149387,17.82719745034473,1.8026931422569314,1.0,29.505479
528,17.894981471068473,0.30850837988060764,17.8610894607066,1.4227126085634916,1.0,29.505479
529,17.928873481430347,0.06900918799998146,17.894981471068476,0.7431440198414877,1.0,29.505479
530,17.96276549179222,-0.18909541942803468,17.928873481430347,-0.0002203887325048156,1.0,29.505479
531,17.99665750215409,-0.45580284722326975,17.96276549179222,-0.6263780033937364,1.0,29.505479
532,18.030549512515964,-0.7325643146250059,17.996657502154093,-1.0641077527004486,1.0,29.505479
533,18.064441522877836,-0.9947202210239787,18.030549512515964,-1.314895632349977,1.0,29.505479
534,18.098333533239707,-1.1679406731276543,18.064441522877836,-1.37295226277578,1.0,29.505479
535,18.132225543601578,-1.1487953089508822,18.098333533239707,-1.183080130950729,1.0,29.505479
536,18.166117553963453,-0.8681438079464816,18.13222554360158,-0.6814734150007351,1.0,29.505479
537,18.200009564325324,-0.3561313944048692,18.166117553963453,0.11021245846665921,1.0,29.505479
538,18.233901574687195,0.2463605995755041,18.200009564325324,1.0208317020280517,1.0,29.505479
539,18.267793585049066,0.75159688932154,18.233901574687195,1.7650567958352499,1.0,29.505479
540,18.30168559541094,1.0251394221975008,18.26779358504907,2.0723574991232954,1.0,29.505479
541,18.335577605772812,1.0485370574089046,18.30168559541094,1.8274531877738798,1.0,29.505479
542,18.369469616134683,0.8993410158405365,18.335577605772812,1.1261336649300793,1.0,29.505479
543,18.403361626496554,0.6723070536189543,18.369469616134683,0.2116927846519841,1.0,29.505479
544,18.43725363685843,0.41242424823281737,18.60671368866779,-0.3486616550709699,-5.0,-147.527395
545,18.4711456472203,0.11384987585845194,18.64060569902966,0.5663864718409833,-5.0,-147.527395
546,18.50503765758217,-0.22305677838788146,18.67449770939153,1.383796489210154,-5.0,-147.527395
547,18.538929667944046,-0.5356460015135912,18.708389719753406,1.8482195476992946,-5.0,-147.527395
548,18.572821678305917,-0.7016316934292984,18.742281730115277,1.8126352246504813,-5.0,-147.527395
549,18.60671368866779,-0.6089486450098268,18.538929667944043,-1.6114446604755712,2.0,59.010958
550,18.64060569902966,-0.24422250194258302,18.572821678305914,-1.1201984275717807,2.0,59.010958
551,18.674497709391535,0.2701636254502146,18.843957761200894,-0.3104318224549401,-5.0,-147.527395
552,18.708389719753406,0.7279900168630629,18.877849771562765,-1.008652591494451,-5.0,-147.527395
553,18.742281730115277,0.9516086050151229,18.911741781924636,-1.4766895266217066,-5.0,-147.527395
554,18.776173740477148,0.8870233824581218,18.708389719753402,1.848219547699246,2.0,59.010958
555,18.810065750839023,0.6144634634863687,18.742281730115277,1.8126352246504813,2.0,59.010958
556,18.843957761200894,0.27224187362642377,18.776173740477148,1.309582291713793,2.0,59.010958
557,18.877849771562765,-0.04251727228049948,18.81006575083902,0.523582134678552,2.0,59.010958
558,18.911741781924636,-0.31993576973923266,18.84395776120089,-0.31043182245485257,2.0,59.010958
559,18.94563379228651,-0.6016653471909487,18.877849771562765,-1.008652591494451,2.0,59.010958
560,18.979525802648382,-0.9015085130061082,18.911741781924636,-1.4766895266217066,2.0,59.010958
561,19.013417813010253,-1.15328595021577,18.945633792286507,-1.6789772188850542,2.0,59.010958
562,19.047309823372125,-1.2331966826224388,18.97952580264838,-1.5891121438938955,2.0,59.010958
563,19.081201833734,-1.0438294826824468,19.013417813010253,-1.1799185268161685,2.0,59.010958
564,19.11509384409587,-0.595952889420649,19.047309823372125,-0.46879154136408663,2.0,59.010958
565,19.14898585445774,-0.022284322793764785,19.3184459062671,-0.7570898238413477,-5.0,-147.527395
566,19.182877864819616,0.4908084123207087,19.352337916628976,-1.2757919684441108,-5.0,-147.527395
567,19.216769875181487,0.8031928591873949,19.386229926990847,-1.5645470003398325,-5.0,-147.527395
568,19.25066188554336,0.8800499867478505,19.182877864819613,1.8902553478304085,2.0,59.010958
569,19.28455389590523,0.7755098141729891,19.216769875181484,1.4872519503605703,2.0,59.010958
570,19.318445906267105,0.5670542674661685,19.25066188554336,0.7676897287269546,2.0,59.010958
571,19.352337916628976,0.29976512943039046,19.28455389590523,-0.0428876838255726,2.0,59.010958
572,19.386229926990847,-0.017083465081739527,19.3184459062671,-0.7570898238413477,2.0,59.010958
573,19.420121937352718,-0.36696782368517666,19.352337916628972,-1.2757919684440564,2.0,59.010958
574,19.454013947714593,-0.6834602032617791,19.386229926990847,-1.5645470003398325,2.0,59.010958
575,19.487905958076464,-0.8552586016238455,19.420121937352718,-1.5980046153604806,2.0,59.010958
576,19.521797968438335,-0.7845951983112323,19.45401394771459,-1.335600078973816,2.0,59.010958
577,19.555689978800206,-0.4558766681217275,19.48790595807646,-0.7585342361804558,2.0,59.010958
578,19.58958198916208,0.04142392056038282,19.521797968438335,0.06254385799453852,2.0,59.010958
579,19.623473999523952,0.5556470918313998,19.555689978800206,0.9364010462622284,2.0,59.010958
580,19.657366009885823,0.9480792481488981,19.589581989162077,1.602466080148198,2.0,59.010958
581,19.691258020247695,1.1437713227842392,19.62347399952395,1.845241462364528,2.0,59.010958
582,19.72515003060957,1.128812576383569,19.657366009885823,1.5982386232565104,2.0,59.010958
583,19.75904204097144,0.9146893118449079,19.691258020247695,0.9673230617079117,2.0,59.010958
584,19.79293405133331,0.5152147770748161,19.725150030609566,0.16245026233242243,2.0,59.010958
585,19.826826061695186,-0.03894175459259548,19.75904204097144,-0.6080120332770046,2.0,59.010958
586,19.860718072057058,-0.6655928926525986,19.996286113504546,0.9608917133895777,-4.0,-118.021916
587,19.89461008241893,-1.2180392076579145,20.030178123866417,1.7133391990516238,-4.0,-118.021916
588,19.9285020927808,-1.5218101759075078,19.860718072057054,-1.651001152161297,2.0,59.010958
589,19.962394103142675,-1.4504540318733556,19.89461008241893,-1.4121950233816607,2.0,59.010958
590,19.996286113504546,-0.9963774715816047,19.9285020927808,-0.8323269790049417,2.0,59.010958
591,20.030178123866417,-0.28956055095122496,20.165746165313905,0.3525010716424251,-4.0,-118.021916
592,20.064070134228288,0.45228321547572736,20.199638175675776,-0.49025473827542726,-4.0,-118.021916
593,20.097962144590163,1.0147168893711258,20.23353018603765,-1.1675296196377332,-4.0,-118.021916
594,20.131854154952034,1.2669350669977955,20.267422196399522,-1.6097013706963286,-4.0,-118.021916
595,20.165746165313905,1.1917865368778255,20.09796214459016,1.8389889129979555,2.0,59.010958
596,20.199638175675776,0.8616937102298575,20.13185415495203,1.2052743427045003,2.0,59.010958
597,20.23353018603765,0.38782290058412244,20.165746165313905,0.3525010716424251,2.0,59.010958
598,20.267422196399522,-0.12266075966497388,20.40299023784701,-0.4386474332364732,-4.0,-118.021916
599,20.301314206761393,-0.5816496351415911,20.43688224820888,0.47378721660679485,-4.0,-118.021916
600,20.335206217123268,-0.9124139250287379,20.470774258570756,1.2871284472720348,-4.0,-118.021916
601,20.36909822748514,-1.042245480768252,20.504666268932628,1.7496624559668812,-4.0,-118.021916
602,20.40299023784701,-0.917306809554285,20.5385582792945,1.727545247750208,-4.0,-118.021916
603,20.43688224820888,-0.5387149531991596,20.369098227485136,-1.2001107311016515,2.0,59.010958
604,20.470774258570756,0.008694997338434018,20.606342300018245,0.5428967595593969,-4.0,-118.021916
605,20.504666268932628,0.5680792802655439,20.640234310380116,-0.21930149847653074,-4.0,-118.021916
606,20.5385582792945,0.9680105785933941,20.674126320741987,-0.8615760859357804,-4.0,-118.021916
607,20.57245028965637,1.0942229854506593,20.708018331103858,-1.305527983234531,-4.0,-118.021916
608,20.606342300018245,0.9319646506404513,20.5385582792945,1.727545247750208,2.0,59.010958
609,20.640234310380116,0.5560182252278747,20.57245028965637,1.2644573509984178,2.0,59.010958
610,20.674126320741987,0.08066458575552456,20.57245028965637,1.2644573509984178,3.0,88.516437
611,20.708018331103858,-0.3936257778654307,20.843586372551346,-0.37152012237337395,-4.0,-118.021916
612,20.741910341465733,-0.8015898720277203,20.87747838291322,0.5106668256173448,-4.0,-118.021916
613,20.775802351827604,-1.0950483885088218,20.911370393275092,1.3384170931544188,-4.0,-118.021916
614,20.809694362189475,-1.213296045856653,20.708018331103858,-1.305527983234531,3.0,88.516437
615,20.843586372551346,-1.0840357046802584,20.74191034146573,-1.5156250806436011,3.0,88.516437
616,20.87747838291322,-0.6708172689082184,20.775802351827604,-1.4511748606843204,3.0,88.516437
617,20.911370393275092,-0.034160347622284135,20.809694362189475,-1.067067375099932,3.0,88.516437
618,20.945262403636963,0.6525974980089371,21.08083044508445,-0.25782073413183715,-4.0,-118.021916
619,20.979154413998838,1.1649361229274202,21.114722455446326,-0.9944305091942184,-4.0,-118.021916
620,21.01304642436071,1.3374626897995032,21.148614465808198,-1.4977810007900694,-4.0,-118.021916
621,21.04693843472258,1.1502575733971472,21.18250647617007,-1.7146652397731212,-4.0,-118.021916
622,21.08083044508445,0.7289219081626218,21.21639848653194,-1.6097953512012286,-4.0,-118.021916
623,21.114722455446326,0.25492551455009527,21.250290496893815,-1.1613686908519623,-4.0,-118.021916
624,21.148614465808198,-0.15058866480187172,21.284182507255686,-0.40525721487037325,-4.0,-118.021916
625,21.18250647617007,-0.48313572418445544,21.318074517617557,0.5158871511445099,-4.0,-118.021916
626,21.21639848653194,-0.8097538183096663,21.351966527979428,1.3590858632793246,-4.0,-118.021916
627,21.250290496893815,-1.1630951296997791,21.385858538341303,1.8640961449886715,-4.0,-118.021916
628,21.284182507255686,-1.4660421547571423,21.419750548703174,1.870186553691002,-4.0,-118.021916
629,21.318074517617557,-1.5524015770376869,21.453642559065045,1.3903574945323796,-4.0,-118.021916
630,21.351966527979428,-1.2713382084835398,21.487534569426916,0.5939907811170101,-4.0,-118.021916
631,21.385858538341303,-0.6000245879827316,21.52142657978879,-0.2850178176898075,-4.0,-118.021916
632,21.419750548703174,0.31358246115691485,21.555318590150662,-1.04720285321009,-4.0,-118.021916
633,21.453642559065045,1.2047158588607099,21.589210600512533,-1.5714546368595137,-4.0,-118.021916
634,21.487534569426916,1.806798482404181,21.82645467304564,1.8992529053268616,-10.0,-295.05479
635,21.52142657978879,1.9600111299825056,21.419750548703174,1.870186553691002,3.0,88.516437
636,21.555318590150662,1.6600041431601271,21.453642559065045,1.3903574945323796,3.0,88.516437
637,21.589210600512533,1.0353527177768023,21.487534569426916,0.5939907811170101,3.0,88.516437
638,21.623102610874408,0.28070716420316666,21.52142657978879,-0.2850178176898075,3.0,88.516437
639,21.65699462123628,-0.4134093624666426,21.792562662683768,1.409808682665442,-4.0,-118.021916
640,21.69088663159815,-0.9049934420729793,21.82645467304564,1.8992529053268616,-4.0,-118.021916
641,21.72477864196002,-1.1151644012574229,21.623102610874405,-1.7953396599527518,3.0,88.516437
642,21.758670652321896,-1.0281887123361941,21.65699462123628,-1.6776297022513027,3.0,88.516437
643,21.792562662683768,-0.6903749688433952,21.69088663159815,-1.1974283303686895,3.0,88.516437
644,21.82645467304564,-0.20393342001804915,21.72477864196002,-0.4002804473872954,3.0,88.516437
645,21.86034668340751,0.29720163500304325,21.962022714493127,-0.32285769020860366,-3.0,-88.516437
646,21.894238693769385,0.689024183647442,21.995914724855,-1.0608264865345638,-3.0,-88.516437
647,21.928130704131256,0.8949842822519208,22.029806735216873,-1.5536628917922926,-3.0,-88.516437
648,21.962022714493127,0.8958858440350593,22.063698745578744,-1.7461292742459569,-3.0,-88.516437
649,21.995914724854998,0.7110775918008819,21.89423869376938,1.36005370977888,3.0,88.516437
650,22.029806735216873,0.37424937551060894,21.928130704131256,0.5487139723479264,3.0,88.516437
651,22.063698745578744,-0.07175491635564912,22.16537477666436,-0.2832254380198231,-3.0,-88.516437
652,22.097590755940615,-0.5598988458509623,22.199266787026232,0.6826492408222454,-3.0,-88.516437
653,22.13148276630249,-0.9864875521156319,22.470402869921212,-1.5952046348821713,-10.0,-295.05479
654,22.16537477666436,-1.2265360502959082,22.504294880283084,-1.8453948984702488,-10.0,-295.05479
655,22.199266787026232,-1.1818847593426158,22.538186890644955,-1.734466668399334,-10.0,-295.05479
656,22.233158797388104,-0.8391047266112861,22.131482766302486,-1.097171885090194,3.0,88.516437
657,22.26705080774998,-0.2977289972386091,22.368726838835595,0.6765674389016566,-3.0,-88.516437
658,22.30094281811185,0.2608170361206006,22.402618849197466,-0.23578643559987822,-3.0,-88.516437
659,22.33483482847372,0.6555880507558333,22.436510859559338,-1.0345250635638605,-3.0,-88.516437
660,22.36872683883559,0.7903767916766337,22.47040286992121,-1.5952046348821451,-3.0,-88.516437
661,22.402618849197466,0.683340650767588,22.504294880283084,-1.8453948984702488,-3.0,-88.516437
662,22.436510859559338,0.42559303293282735,22.33483482847372,1.5057637499017762,3.0,88.516437
663,22.47040286992121,0.10677699881408899,22.36872683883559,0.6765674389017522,3.0,88.516437
664,22.50429488028308,-0.23267925966939557,22.605970911368697,-0.4205318232978612,-3.0,-88.516437
665,22.538186890644955,-0.5898123848902993,22.639862921730572,0.5550701154395719,-3.0,-88.516437
666,22.572078901006826,-0.9457417456507278,22.673754932092443,1.4203594866453824,-3.0,-88.516437
667,22.605970911368697,-1.2224863575407654,22.707646942454314,1.9118156139707838,-3.0,-88.516437
668,22.63986292173057,-1.2940408139532973,22.741538952816185,1.8825259024643421,-3.0,-88.516437
669,22.673754932092443,-1.0532916675274753,22.572078901006826,-1.2410455572528698,3.0,88.516437
670,22.707646942454314,-0.4912835432792825,22.605970911368697,-0.4205318232978612,3.0,88.516437
671,22.741538952816185,0.26868986066345596,22.843214983901802,-0.4020165532800659,-3.0,-88.516437
672,22.77543096317806,1.0114478565189127,22.877106994263677,-1.2241261511706314,-3.0,-88.516437
673,22.80932297353993,1.5237362790645899,22.91099900462555,-1.8107202567340168,-3.0,-88.516437
674,22.843214983901802,1.6853403703096077,22.94489101498742,-2.072627959698202,-3.0,-88.516437
675,22.877106994263674,1.5064134951250059,22.97878302534929,-1.93929308366656,-3.0,-88.516437
676,22.91099900462555,1.098830470787384,23.012675035711165,-1.378066495834798,-3.0,-88.516437
677,22.94489101498742,0.6103616955237867,23.046567046073037,-0.45096238455968607,-3.0,-88.516437
678,22.97878302534929,0.1640884828123187,23.080459056434908,0.6458684362789963,-3.0,-88.516437
679,23.012675035711162,-0.17112540204733873,23.11435106679678,1.6167084994410676,-3.0,-88.516437
680,23.046567046073037,-0.3791448384005501,23.148243077158654,2.1778605414364978,-3.0,-88.516437
681,23.080459056434908,-0.4780106601875784,23.182135087520525,2.1834332938570373,-3.0,-88.516437
682,23.11435106679678,-0.4969125558620373,23.216027097882396,1.6831235644023712,-3.0,-88.516437
683,23.14824307715865,-0.45596614799864604,23.012675035711162,-1.3780664958348952,4.0,118.021916
684,23.182135087520525,-0.355354350113245,23.283811118606142,-0.001204235213494379,-3.0,-88.516437
685,23.216027097882396,-0.18082972880348194,23.317703128968013,-0.7721127533097026,-3.0,-88.516437
686,23.249919108244267,0.07293634014461176,23.351595139329884,-1.3450267261905382,-3.0,-88.516437
687,23.28381111860614,0.3716349763974682,23.385487149691755,-1.6707563540399086,-3.0,-88.516437
688,23.317703128968013,0.6247428805328584,23.41937916005363,-1.6926993443339091,-3.0,-88.516437
689,23.351595139329884,0.7036409296348202,23.4532711704155,-1.3498712338123997,-3.0,-88.516437
690,23.385487149691755,0.4968295236431931,23.487163180777372,-0.6406302788399304,-3.0,-88.516437
691,23.41937916005363,-0.02113153455096117,23.521055191139247,0.30780893405735704,-3.0,-88.516437
692,23.4532711704155,-0.7455619950720013,23.55494720150112,1.2373593148411064,-3.0,-88.516437
693,23.487163180777372,-1.4546843491242316,23.58883921186299,1.8514723559575175,-3.0,-88.516437
694,23.521055191139244,-1.8859996217943853,23.62273122222486,1.9528476134653738,-3.0,-88.516437
695,23.55494720150112,-1.8481496338578491,23.656623232586735,1.5356685686713754,-3.0,-88.516437
696,23.58883921186299,-1.314708272455001,23.690515242948607,0.7712873635349139,-3.0,-88.516437
697,23.62273122222486,-0.44668026972505753,23.724407253310478,-0.09650766570954025,-3.0,-88.516437
698,23.656623232586732,0.47549471173386687,23.75829926367235,-0.8685886696662507,-3.0,-88.516437
699,23.690515242948607,1.1770941491805407,23.792191274034224,-1.4427259161205026,-3.0,-88.516437
700,23.724407253310478,1.502236449614807,23.826083284396095,-1.7826395204375811,-3.0,-88.516437
701,23.75829926367235,1.4547206580900682,23.859975294757966,-1.8533238268282712,-3.0,-88.516437
702,23.79219127403422,1.1542623181210938,23.656623232586732,1.5356685686714555,4.0,118.021916
703,23.826083284396095,0.7476686186784482,23.690515242948607,0.7712873635349139,4.0,118.021916
704,23.859975294757966,0.33543534594664404,23.724407253310478,-0.09650766570954025,4.0,118.021916
705,23.893867305119837,-0.04598691303409759,23.995543336205454,0.9737353224052359,-3.0,-88.516437
706,23.927759315481712,-0.3891511597412934,24.02943534656733,1.7852745428281094,-3.0,-88.516437
707,23.961651325843583,-0.6657369968729848,24.0633273569292,2.135643165972423,-3.0,-88.516437
708,23.995543336205454,-0.8059278252468198,23.859975294757966,-1.8533238268282712,4.0,118.021916
709,24.029435346567325,-0.7280917254050545,23.893867305119837,-1.595156603486731,4.0,118.021916
710,24.0633273569292,-0.40236374796244595,23.927759315481712,-0.9701221809046625,4.0,118.021916
711,24.09721936729107,0.09750923111151925,23.961651325843583,-0.043964659460103354,4.0,118.021916
712,24.131111377652942,0.5987960572697775,24.19889539837669,-0.4435395905013287,-2.0,-59.010958
713,24.165003388014814,0.900091606342967,24.23278740873856,-1.155976472621411,-2.0,-59.010958
714,24.19889539837669,0.8696778123638342,24.266679419100434,-1.653976738752958,-2.0,-59.010958
715,24.23278740873856,0.5117914434581029,24.300571429462305,-1.894445503436834,-2.0,-59.010958
716,24.26667941910043,-0.039711713976813924,24.334463439824177,-1.810938202661185,-2.0,-59.010958
717,24.300571429462302,-0.5936731294402282,24.368355450186048,-1.3366902250668162,-2.0,-59.010958
718,24.334463439824177,-0.9929601726542651,24.402247460547922,-0.4855935759294463,-2.0,-59.010958
719,24.368355450186048,-1.171405937430877,24.436139470909794,0.5790369141321235,-2.0,-59.010958
720,24.40224746054792,-1.1512116818131564,24.470031481271665,1.5622500590994715,-2.0,-59.010958
721,24.43613947090979,-0.9956646499109433,24.503923491633536,2.154277403926258,-2.0,-59.010958
722,24.470031481271665,-0.7568503497539316,24.53781550199541,2.1784631549841116,-2.0,-59.010958
723,24.503923491633536,-0.45412031339809594,24.571707512357282,1.671678488025731,-2.0,-59.010958
724,24.537815501995407,-0.0910205776431128,24.605599522719153,0.8452589747207065,-2.0,-59.010958
725,24.571707512357282,0.3131396658241288,24.639491533081028,-0.03984921219898812,-2.0,-59.010958
726,24.605599522719153,0.7100307292641195,24.6733835434429,-0.7940760111867964,-2.0,-59.010958
727,24.639491533081024,1.038629450060285,24.70727555380477,-1.3405110809262957,-2.0,-59.010958
728,24.673383543442895,1.251801834837134,24.74116756416664,-1.6680994960143827,-2.0,-59.010958
729,24.70727555380477,1.3260031268181898,24.571707512357282,1.671678488025731,4.0,118.021916
730,24.74116756416664,1.2486090679730388,24.808951584890387,-1.5421514599040094,-2.0,-59.010958
731,24.775059574528512,1.0039602636554654,24.84284359525226,-0.9769969173066754,-2.0,-59.010958
732,24.808951584890384,0.5832131887276005,24.87673560561413,-0.10843748089792012,-2.0,-59.010958
733,24.84284359525226,0.020161707004684382,24.910627615976004,0.8675989181222661,-2.0,-59.010958
734,24.87673560561413,-0.5754544542445896,24.944519626337875,1.6567916706476702,-2.0,-59.010958
735,24.910627615976,-1.0269674160626248,24.978411636699747,1.9962330125161967,-2.0,-59.010958
736,24.944519626337872,-1.1585654710467002,24.775059574528512,-1.7555725797501334,5.0,147.527395
737,24.978411636699747,-0.8918369868676378,24.808951584890387,-1.5421514599040094,5.0,147.527395
738,25.012303647061618,-0.30798952986921424,24.84284359525226,-0.9769969173066754,5.0,147.527395
739,25.04619565742349,0.3739533375806061,25.113979678147235,-0.6668500762021903,-2.0,-59.010958
740,25.08008766778536,0.897310655005434,25.147871688509106,-1.3589408384019663,-2.0,-59.010958
741,25.113979678147235,1.086343658009772,25.18176369887098,-1.7732092639252315,-2.0,-59.010958
742,25.147871688509106,0.9130152057755834,25.215655709232852,-1.8593370521321906,-2.0,-59.010958
743,25.181763698870977,0.48033848637347737,25.249547719594723,-1.5747883766308186,-2.0,-59.010958
744,25.215655709232852,-0.05352647380716667,25.283439729956598,-0.9098213321147031,-2.0,-59.010958
745,25.249547719594723,-0.5535703295327152,25.31733174031847,0.04950384169689224,-2.0,-59.010958
746,25.283439729956594,-0.9418486426801923,25.35122375068034,1.0868296157083737,-2.0,-59.010958
747,25.317331740318465,-1.1817569904020857,25.38511576104221,1.9046560208537713,-2.0,-59.010958
748,25.35122375068034,-1.2463985020444506,25.419007771404086,2.246556542403703,-2.0,-59.010958
749,25.38511576104221,-1.1099888227486343,25.452899781765957,2.017109178319494,-2.0,-59.010958
750,25.419007771404083,-0.7714054482679676,25.48679179212783,1.3180802394064939,-2.0,-59.010958
751,25.452899781765954,-0.28409413683085905,25.5206838024897,0.37928846544399053,-2.0,-59.010958
752,25.48679179212783,0.24124029569998637,25.554575812851574,-0.5612372974206714,-2.0,-59.010958
753,25.5206838024897,0.6706939187215765,25.588467823213445,-1.3426916507505318,-2.0,-59.010958
754,25.55457581285157,0.8964512320015422,25.622359833575317,-1.8845696377358148,-2.0,-59.010958
755,25.588467823213442,0.8701080440976228,25.656251843937188,-2.131219321150408,-2.0,-59.010958
756,25.622359833575317,0.6051660880890599,25.690143854299063,-2.0091107426538084,-2.0,-59.010958
757,25.656251843937188,0.15752595320549687,25.724035864660934,-1.4526325996532345,-2.0,-59.010958
758,25.69014385429906,-0.395659572230694,25.757927875022805,-0.48787701067859796,-2.0,-59.010958
759,25.724035864660934,-0.9647137685775623,25.79181988538468,0.6986720839934379,-2.0,-59.010958
760,25.757927875022805,-1.4461169630483883,25.82571189574655,1.7828578417796854,-2.0,-59.010958
761,25.791819885384676,-1.7261795095838386,25.859603906108422,2.428248483368745,-2.0,-59.010958
762,25.825711895746547,-1.703622777122732,25.893495916470293,2.442423297778404,-2.0,-59.010958
763,25.859603906108422,-1.329891030687073,25.927387926832168,1.8613447511818981,-2.0,-59.010958
764,25.893495916470293,-0.6461225396437857,25.724035864660934,-1.4526325996532345,5.0,147.527395
765,25.927387926832164,0.2135880484106595,25.757927875022805,-0.48787701067859796,5.0,147.527395
766,25.961279937194035,1.0681246186518438,25.791819885384676,0.6986720839933243,5.0,147.527395
767,25.99517194755591,1.764145089819016,25.82571189574655,1.7828578417796854,5.0,147.527395
768,26.02906395791778,2.2303275491332637,25.859603906108422,2.428248483368745,5.0,147.527395
769,26.062955968279653,2.4710746146317155,25.893495916470293,2.442423297778404,5.0,147.527395
770,26.096847978641524,2.507116692869024,25.927387926832164,1.861344751181998,5.0,147.527395
771,26.1307399890034,2.31657512156766,25.96127993719404,0.9084326145867531,5.0,147.527395
772,26.16463199936527,1.8341456137178525,25.99517194755591,-0.13488163589276944,5.0,147.527395
773,26.19852400972714,1.0223500431041186,26.02906395791778,-1.0523451971292381,5.0,147.527395
774,26.232416020089012,-0.03293092922907297,26.062955968279653,-1.7327486436893746,5.0,147.527395
775,26.266308030450887,-1.0846040059450597,26.300200040812758,2.2077403727750364,-1.0,-29.505479
776,26.300200040812758,-1.798324325091296,26.33409205117463,2.4747228841847595,-1.0,-29.505479
777,26.33409205117463,-1.913043978175693,26.3679840615365,2.0979104791218286,-1.0,-29.505479
778,26.367984061536504,-1.392156643504514,26.401876071898375,1.2455264567093218,-1.0,-29.505479
779,26.401876071898375,-0.4655842983500709,26.435768082260246,0.20312641651415392,-1.0,-29.505479
780,26.435768082260246,0.4704468501424242,26.469660092622117,-0.7680429254627222,-1.0,-29.505479
781,26.469660092622117,1.0411111640419835,26.50355210298399,-1.5151873841414034,-1.0,-29.505479
782,26.503552102983992,1.060927107063802,26.537444113345863,-1.9816792631098938,-1.0,-29.505479
783,26.537444113345863,0.5888610337030556,26.571336123707734,-2.1370037726403313,-1.0,-29.505479
784,26.571336123707734,-0.15103735176027466,26.605228134069606,-1.9283587226186156,-1.0,-29.505479
785,26.605228134069606,-0.9197061188121236,26.639120144431477,-1.3074019017510585,-1.0,-29.505479
786,26.63912014443148,-1.5769027280335068,26.67301215479335,-0.3143771990129356,-1.0,-29.505479
787,26.67301215479335,-2.086073089007679,26.706904165155223,0.8571408452755859,-1.0,-29.505479
788,26.706904165155223,-2.428654289128786,26.740796175517094,1.8879179124663006,-1.0,-29.505479
789,26.740796175517094,-2.5219010607728447,26.774688185878965,2.458469948418537,-1.0,-29.505479
790,26.77468818587897,-2.229350973135203,26.80858019624084,2.3987858033111875,-1.0,-29.505479
791,26.80858019624084,-1.46899873636472,26.84247220660271,1.7640993607653899,-1.0,-29.505479
792,26.84247220660271,-0.330815014100182,26.876364216964582,0.7888652578372922,-1.0,-29.505479
793,26.876364216964582,0.9058480757271464,26.910256227326453,-0.24350068027856697,-1.0,-29.505479
794,26.910256227326457,1.888873587368593,26.944148237688328,-1.1236927809976418,-1.0,-29.505479
795,26.944148237688328,2.3675455646660337,26.9780402480502,-1.7570279587949955,-1.0,-29.505479
796,26.9780402480502,2.3008262470445255,27.01193225841207,-2.1154287916793653,-1.0,-29.505479
797,27.011932258412074,1.8330333580384814,27.045824268773945,-2.162912268256301,-1.0,-29.505479
798,27.045824268773945,1.1744663540974543,27.079716279135816,-1.83214142617437,-1.0,-29.505479
799,27.079716279135816,0.4851107811579216,27.113608289497687,-1.081686688145765,-1.0,-29.505479
800,27.113608289497687,-0.16351863707455927,27.14750029985956,0.010519168501845533,-1.0,-29.505479
801,27.147500299859562,-0.746149180752687,27.181392310221433,1.2032030234819628,-1.0,-29.505479
802,27.181392310221433,-1.2174795422416997,27.215284320583304,2.154704550179696,-1.0,-29.505479
803,27.215284320583304,-1.4844711596867235,27.249176330945176,2.5706224237963373,-1.0,-29.505479
804,27.249176330945176,-1.4414917898290172,27.283068341307047,2.344610276217748,-1.0,-29.505479
805,27.28306834130705,-1.0427638397761683,27.31696035166892,1.5988255502501845,-1.0,-29.505479
806,27.31696035166892,-0.3568535022139201,27.350852362030793,0.5999820035996196,-1.0,-29.505479
807,27.350852362030793,0.44302667827805864,27.384744372392664,-0.3857941230027538,-1.0,-29.505479
808,27.384744372392664,1.1543357748572618,27.418636382754535,-1.1983548087876628,-1.0,-29.505479
809,27.41863638275454,1.6375796536333966,27.45252839311641,-1.7870370306801546,-1.0,-29.505479
810,27.45252839311641,1.862194017555281,27.48642040347828,-2.1330854657994043,-1.0,-29.505479
811,27.48642040347828,1.8767869369242702,27.520312413840152,-2.1743719206344356,-1.0,-29.505479
812,27.520312413840156,1.7321519760122712,27.554204424202027,-1.8101733096301675,-1.0,-29.505479
813,27.554204424202027,1.42209795970747,27.588096434563898,-0.9935780213351476,-1.0,-29.505479
814,27.588096434563898,0.8952095426397448,27.62198844492577,0.161770552148173,-1.0,-29.505479
815,27.62198844492577,0.1358052203095713,27.65588045528764,1.3592674386121522,-1.0,-29.505479
816,27.655880455287644,-0.7495212195097248,27.689772465649515,2.2238932199975756,-1.0,-29.505479
817,27.689772465649515,-1.522600512122709,27.723664476011386,2.479207017521953,-1.0,-29.505479
818,27.723664476011386,-1.9132131575708902,27.757556486373257,2.081928518164437,-1.0,-29.505479
819,27.757556486373257,-1.7701106956206736,27.79144849673513,1.2256899068605405,-1.0,-29.505479
820,27.791448496735132,-1.1571311918567908,27.825340507097003,0.2179632243252041,-1.0,-29.505479
821,27.825340507097003,-0.32502007357124596,27.859232517458874,-0.6799134357928213,-1.0,-29.505479
822,27.859232517458874,0.4201550494826567,27.893124527820746,-1.343611049397377,-1.0,-29.505479
823,27.893124527820746,0.8624265088032729,27.927016538182617,-1.7622651855429017,-1.0,-29.505479
824,27.92701653818262,0.9466376857131933,27.96090854854449,-1.943475424363203,-1.0,-29.505479
825,27.96090854854449,0.7470880919653472,27.994800558906363,-1.8399286202701906,-1.0,-29.505479
826,27.994800558906363,0.37781457635078536,28.028692569268234,-1.367081049372175,-1.0,-29.505479
827,28.028692569268234,-0.0817011509185779,28.062584579630105,-0.5024768196463258,-1.0,-29.505479
828,28.06258457963011,-0.5984027652135833,28.09647658999198,0.6166355017688678,-1.0,-29.505479
829,28.09647658999198,-1.1448066914140547,28.13036860035385,1.6901912593004123,-1.0,-29.505479
830,28.13036860035385,-1.6547649955369523,28.164260610715722,2.3722502619925856,-1.0,-29.505479
831,28.164260610715726,-2.0182028104577143,28.198152621077597,2.439714104966545,-1.0,-29.505479
832,28.198152621077597,-2.1167097503081598,28.232044631439468,1.9000831821360298,-1.0,-29.505479
833,28.232044631439468,-1.8698058449995023,28.26593664180134,0.967936156094752,-1.0,-29.505479
834,28.26593664180134,-1.2641167662307407,28.29982865216321,-0.06528343682791682,-1.0,-29.505479
835,28.299828652163214,-0.36108636860082466,28.333720662525085,-0.9719956135544083,-1.0,-29.505479
836,28.333720662525085,0.7067168524270787,28.367612672886956,-1.6478488489038918,-1.0,-29.505479
837,28.367612672886956,1.747185739844637,28.401504683248827,-2.068892894018971,-1.0,-29.505479
838,28.401504683248827,2.5379300249032344,28.4353966936107,-2.2059844915034845,-1.0,-29.505479
839,28.435396693610702,2.8807571906394993,28.469288703972573,-1.9848708521618228,-1.0,-29.505479
840,28.469288703972573,2.6679898583752593,28.503180714334444,-1.3372904786904316,-1.0,-29.505479
841,28.503180714334444,1.9302892443539639,28.537072724696316,-0.3062978254966007,-1.0,-29.505479
842,28.537072724696316,0.842235062437502,28.570964735058187,0.8873384334466676,-1.0,-29.505479
843,28.57096473505819,-0.31782620360610203,28.60485674542006,1.8929133164084373,-1.0,-29.505479
844,28.60485674542006,-1.2437281519966437,28.638748755781933,2.383253060838114,-1.0,-29.505479
845,28.638748755781933,-1.6967834971814697,28.672640766143804,2.219798474128986,-1.0,-29.505479
846,28.672640766143804,-1.592716839629697,28.706532776505675,1.5183067462389834,-1.0,-29.505479
847,28.70653277650568,-1.04118566445861,28.74042478686755,0.57275854441989,-1.0,-29.505479
848,28.74042478686755,-0.3075638761756402,28.74042478686755,0.57275854441989,0.0,0.0
849,28.77431679722942,0.2973498490549856,28.77431679722942,-0.305452833866872,0.0,0.0
850,28.808208807591296,0.5511536413145622,28.808208807591296,-0.9245997318055633,0.0,0.0
851,28.842100817953167,0.410218829382697,28.842100817953167,-1.248770838047087,0.0,0.0
852,28.875992828315038,0.010525714326784546,28.875992828315038,-1.336049158639005,0.0,0.0
853,28.90988483867691,-0.41901811201913014,28.90988483867691,-1.2462845886486245,0.0,0.0
854,28.943776849038784,-0.6811364316674787,28.943776849038784,-0.9928644219474985,0.0,0.0
855,28.977668859400655,-0.7023427983348794,28.977668859400655,-0.5661798113001457,0.0,0.0
856,29.011560869762526,-0.5421296509672865,29.011560869762526,0.003834480276033008,0.0,0.0
857,29.045452880124397,-0.3208846726200431,29.045452880124397,0.6076733431332045,0.0,0.0
858,29.079344890486272,-0.12220887328073926,29.079344890486272,1.0791543097764371,0.0,0.0
859,29.113236900848143,0.058279334715518306,29.113236900848143,1.2699952598344233,0.0,0.0
860,29.147128911210014,0.28323226552053377,29.147128911210014,1.1243992595708168,0.0,0.0
861,29.181020921571886,0.5932480447849077,29.181020921571886,0.7029946319424767,0.0,0.0
862,29.21491293193376,0.9456931527798603,29.21491293193376,0.14405432465062054,0.0,0.0
863,29.24880494229563,1.2237672691667176,29.24880494229563,-0.40605795792412425,0.0,0.0
864,29.282696952657503,1.306671311549048,29.282696952657503,-0.8449085670412811,0.0,0.0
865,29.316588963019377,1.1435831029036048,29.316588963019377,-1.120905016596753,0.0,0.0
866,29.35048097338125,0.7785952572079664,29.35048097338125,-1.2064815543089529,0.0,0.0
867,29.38437298374312,0.3179735040355466,29.38437298374312,-1.0747710695300252,0.0,0.0
868,29.41826499410499,-0.12996722080664158,29.41826499410499,-0.7094718315935524,0.0,0.0
869,29.452157004466866,-0.5025634181821792,29.452157004466866,-0.14323544601827087,0.0,0.0
870,29.486049014828737,-0.7914755245448716,29.486049014828737,0.512290279841391,0.0,0.0
871,29.519941025190608,-1.0107985063498157,29.519941025190608,1.0826402646491053,0.0,0.0
872,29.55383303555248,-1.1517364916959205,29.55383303555248,1.3970035959394584,0.0,0.0
873,29.587725045914354,-1.1658125087061526,29.587725045914354,1.367309643324791,0.0,0.0
874,29.621617056276225,-1.0000825627642427,29.621617056276225,1.027788688724235,0.0,0.0
875,29.655509066638096,-0.6602760191753735,29.655509066638096,0.5086703645739983,0.0,0.0
876,29.689401076999967,-0.24126175848026493,29.689401076999967,-0.03633585140675665,0.0,0.0
877,29.723293087361842,0.1169158622225178,29.723293087361842,-0.49864097132807156,0.0,0.0
878,29.757185097723713,0.3211566205989625,29.757185097723713,-0.8366188479414164,0.0,0.0
879,29.791077108085585,0.38642683242304854,29.791077108085585,-1.0458699819873465,0.0,0.0
880,29.824969118447456,0.4065842816379087,29.824969118447456,-1.1124106087901302,0.0,0.0
881,29.85886112880933,0.4549616811402781,29.85886112880933,-0.9945315000617438,0.0,0.0
882,29.8927531391712,0.5015987490597663,29.8927531391712,-0.6537590916182429,0.0,0.0
883,29.926645149533073,0.42649371032183336,29.926645149533073,-0.11226262279593549,0.0,0.0
884,29.960537159894947,0.12916708801023094,29.960537159894947,0.5132068674022898,0.0,0.0
885,29.99442917025682,-0.3506381883446119,29.99442917025682,1.0384211183125671,0.0,0.0
886,30.02832118061869,-0.8049137373161379,30.02832118061869,1.2922095025753582,0.0,0.0
887,30.06221319098056,-0.9595584791106332,30.06221319098056,1.19989954626615,0.0,0.0
888,30.096105201342436,-0.6453791283407824,30.096105201342436,0.8141206097670665,0.0,0.0
889,30.129997211704307,0.07826958791908109,30.129997211704307,0.27517802125493634,0.0,0.0
890,30.163889222066178,0.9331782474827509,30.163889222066178,-0.2668278874959358,0.0,0.0
891,30.19778123242805,1.560839422167962,30.19778123242805,-0.713001653289778,0.0,0.0
892,30.231673242789924,1.7035237217631372,30.231673242789924,-1.0242288537434276,0.0,0.0
893,30.265565253151795,1.3228946375125876,30.265565253151795,-1.1858268049092984,0.0,0.0
894,30.299457263513666,0.596878534721324,30.299457263513666,-1.1702374242589733,0.0,0.0
895,30.333349273875537,-0.1926713500499637,30.333349273875537,-0.9374556957177297,0.0,0.0
896,30.367241284237412,-0.8114779706822441,30.367241284237412,-0.47739617150585045,0.0,0.0
897,30.401133294599283,-1.175022485153913,30.401133294599283,0.14180306989536504,0.0,0.0
898,30.435025304961155,-1.3436428392130284,30.435025304961155,0.7669122031613048,0.0,0.0
899,30.468917315323026,-1.423469918339415,30.468917315323026,1.212713795050218,0.0,0.0
900,30.5028093256849,-1.454473030949788,30.5028093256849,1.3466322664180483,0.0,0.0
901,30.53670133604677,-1.3745191193001876,30.53670133604677,1.1496523209860698,0.0,0.0
902,30.570593346408643,-1.0812581868728863,30.570593346408643,0.7138855426240494,0.0,0.0
903,30.604485356770518,-0.5320556214522354,30.604485356770518,0.1826984974616286,0.0,0.0
904,30.63837736713239,0.19950971636872802,30.63837736713239,-0.3210987832849176,0.0,0.0
905,30.67226937749426,0.9456324937470191,30.67226937749426,-0.7299841526357073,0.0,0.0
906,30.70616138785613,1.5196958464362444,30.70616138785613,-1.0141992459313558,0.0,0.0
907,30.740053398218006,1.7938345129805828,30.53670133604677,1.1496523209860698,6.0,177.032874
908,30.773945408579877,1.7380858444547602,30.570593346408643,0.7138855426240494,6.0,177.032874
909,30.807837418941748,1.4085244866571407,30.84172942930362,-0.1404433521978892,-1.0,-29.505479
910,30.84172942930362,0.9011443474995503,30.87562143966549,0.5306604492346747,-1.0,-29.505479
911,30.875621439665494,0.30693889243481987,30.67226937749426,-0.7299841526357073,6.0,177.032874
912,30.909513450027365,-0.3011221313968623,30.70616138785613,-1.0141992459313558,6.0,177.032874
913,30.943405460389236,-0.8483454487609413,30.740053398218002,-1.1405307697001295,6.0,177.032874
914,30.977297470751108,-1.2378139483178032,31.01118948111298,0.8300004693044423,-1.0,-29.505479
915,31.011189481112982,-1.3646044367985095,31.045081491474853,0.24891904221245786,-1.0,-29.505479
916,31.045081491474853,-1.166117260519518,31.078973501836725,-0.32154064435891566,-1.0,-29.505479
917,31.078973501836725,-0.6704790661873768,31.112865512198596,-0.7746340545212449,-1.0,-29.505479
918,31.1128655121986,-0.0014927060856631588,31.14675752256047,-1.0734782476066371,-1.0,-29.505479
919,31.14675752256047,0.6650915420091602,31.18064953292234,-1.210776893721975,-1.0,-29.505479
920,31.18064953292234,1.1612503843693252,31.214541543284213,-1.1661247013218685,-1.0,-29.505479
921,31.214541543284213,1.3666212683889323,31.248433553646084,-0.9041981883748247,-1.0,-29.505479
922,31.248433553646088,1.222002954895895,31.28232556400796,-0.4177935478925363,-1.0,-29.505479
923,31.28232556400796,0.7357339279553344,31.31621757436983,0.22253269668069464,-1.0,-29.505479
924,31.31621757436983,-0.0021463066768105925,31.3501095847317,0.8611547290406244,-1.0,-29.505479
925,31.3501095847317,-0.8105843684462968,31.384001595093572,1.3108136167927165,-1.0,-29.505479
926,31.384001595093576,-1.4444074812137704,31.417893605455447,1.437350523363618,-1.0,-29.505479
927,31.417893605455447,-1.6745404645214204,31.451785615817318,1.220410201479562,-1.0,-29.505479
928,31.451785615817318,-1.3966537356442497,31.48567762617919,0.752119921564356,-1.0,-29.505479
929,31.48567762617919,-0.7049528535121349,31.51956963654106,0.1808167703729947,-1.0,-29.505479
930,31.519569636541064,0.13025028874119554,31.553461646902935,-0.3573791798148163,-1.0,-29.505479
931,31.553461646902935,0.7878662048276737,31.587353657264806,-0.7758186669859367,-1.0,-29.505479
932,31.587353657264806,1.0565122115551895,31.621245667626678,-1.0309203489837446,-1.0,-29.505479
933,31.621245667626678,0.9290456297719056,31.65513767798855,-1.095333504253516,-1.0,-29.505479
934,31.655137677988552,0.5720296607619441,31.689029688350423,-0.9465383492991141,-1.0,-29.505479
935,31.689029688350423,0.1988968962640007,31.722921698712295,-0.587171682791602,-1.0,-29.505479
936,31.722921698712295,-0.06020500210908098,31.756813709074166,-0.07836096897730938,-1.0,-29.505479
937,31.75681370907417,-0.20646674099852852,31.79070571943604,0.4520606105255166,-1.0,-29.505479
938,31.79070571943604,-0.32010458497214,31.82459772979791,0.8485759867950537,-1.0,-29.505479
939,31.82459772979791,-0.4608919631998266,31.858489740159783,0.9961920126377627,-1.0,-29.505479
940,31.858489740159783,-0.6005439874543331,31.892381750521654,0.8714596150524385,-1.0,-29.505479
941,31.892381750521658,-0.6339018774768224,31.92627376088353,0.5410509866077327,-1.0,-29.505479
942,31.92627376088353,-0.4545468514858023,31.9601657712454,0.11379379938722906,-1.0,-29.505479
943,31.9601657712454,-0.037966154063915236,31.99405778160727,-0.3139930172591531,-1.0,-29.505479
944,31.99405778160727,0.520548558086924,32.02794979196914,-0.6812379778718514,-1.0,-29.505479
945,32.02794979196914,1.0309763194245385,32.06184180233102,-0.9460168060835907,-1.0,-29.505479
946,32.06184180233102,1.2816263101850267,32.09573381269289,-1.0578025214998161,-1.0,-29.505479
947,32.09573381269289,1.1288453509896497,32.129625823054766,-0.9547440828664606,-1.0,-29.505479
948,32.12962582305476,0.5670934409239125,32.163517833416634,-0.6001467534588706,-1.0,-29.505479
949,32.163517833416634,-0.25214508666117824,32.19740984377851,-0.03463425506501956,-1.0,-29.505479
950,32.1974098437785,-1.0661644923322589,32.231301854140376,0.6019966846448392,-1.0,-29.505479
951,32.231301854140376,-1.5975332500743893,32.26519386450225,1.110591343941735,-1.0,-29.505479
952,32.26519386450225,-1.6626364154538327,32.299085874864126,1.3208126150016577,-1.0,-29.505479
953,32.29908587486412,-1.244514846588947,32.33297788522599,1.1742686887739613,-1.0,-29.505479
954,32.33297788522599,-0.49508159989218414,32.36686989558787,0.747765237002376,-1.0,-29.505479
955,32.36686989558787,0.33547462345075657,32.40076190594974,0.20238866260962957,-1.0,-29.505479
956,32.400761905949736,1.005374045710778,32.43465391631161,-0.3043538727634143,-1.0,-29.505479
957,32.43465391631161,1.3671026909360278,32.468545926673485,-0.6832419004397745,-1.0,-29.505479
958,32.468545926673485,1.3925763633383097,32.50243793703536,-0.9172619644226346,-1.0,-29.505479
959,32.50243793703535,1.1407696890990968,32.53632994739723,-1.016016318041974,-1.0,-29.505479
960,32.53632994739723,0.7047054800542293,32.5702219577591,-0.9686087060823512,-1.0,-29.505479
961,32.570221957759095,0.17536152967228194,32.60411396812097,-0.7396599800685506,-1.0,-29.505479
962,32.60411396812097,-0.364563598236426,32.638005978482845,-0.3134976761415616,-1.0,-29.505479
963,32.638005978482845,-0.829861767464708,32.67189798884472,0.25230909046586036,-1.0,-29.505479
964,32.67189798884471,-1.1280240121734058,32.70578999920659,0.8151518965778525,-1.0,-29.505479
965,32.70578999920659,-1.1761563824779342,32.73968200956846,1.1977714500473655,-1.0,-29.505479
966,32.73968200956846,-0.9375085565105383,32.77357401993034,1.2719256777090222,-1.0,-29.505479
967,32.77357401993033,-0.4568036172187823,32.807466030292204,1.0192328534827255,-1.0,-29.505479
968,32.807466030292204,0.1345230699162197,32.84135804065408,0.5304575651756702,-1.0,-29.505479
969,32.84135804065407,0.6591727082669211,32.875250051015946,-0.049289199059887184,-1.0,-29.505479
970,32.875250051015946,0.9659890616996151,32.90914206137782,-0.5857687773521346,-1.0,-29.505479
971,32.90914206137782,0.9913059362245527,32.943034071739696,-0.9889704084424481,-1.0,-29.505479
972,32.94303407173969,0.7706862765520538,32.97692608210156,-1.2059791681239707,-1.0,-29.505479
973,32.97692608210156,0.39782113231971405,32.807466030292204,1.0192328534827255,5.0,147.527395
974,33.01081809246344,-0.032821657781994446,32.84135804065408,0.5304575651756702,5.0,147.527395
975,33.044710102825306,-0.45507036078895996,33.07860211318718,-0.4714926132608248,-1.0,-29.505479
976,33.07860211318718,-0.8181221636825502,33.112494123549055,0.14112534655902328,-1.0,-29.505479
977,33.112494123549055,-1.0584282286480726,33.14638613391093,0.7328997977598947,-1.0,-29.505479
978,33.14638613391092,-1.0971349343829195,33.1802781442728,1.1333378189659589,-1.0,-29.505479
979,33.1802781442728,-0.8789482949916565,33.01081809246344,-1.199910415195295,5.0,147.527395
980,33.214170154634665,-0.42568394666408627,33.044710102825306,-0.9486091826548686,5.0,147.527395
981,33.24806216499654,0.14457704449374048,33.07860211318718,-0.4714926132608248,5.0,147.527395
982,33.281954175358415,0.660483276324672,33.31584618572029,0.06767870568424336,-1.0,-29.505479
983,33.31584618572028,0.9802878419848269,33.34973819608216,-0.414231520173952,-1.0,-29.505479
984,33.34973819608216,1.0573608137367563,33.38363020644403,-0.7817706036740312,-1.0,-29.505479
985,33.38363020644403,0.9428314614603637,33.41752221680591,-0.987538073361816,-1.0,-29.505479
986,33.4175222168059,0.72778213221878,33.24806216499654,1.0174445169179187,5.0,147.527395
987,33.451414227167774,0.47223374247521344,33.281954175358415,0.5850057867456657,5.0,147.527395
988,33.48530623752965,0.17685091442011316,33.31584618572029,0.06767870568424336,5.0,147.527395
989,33.51919824789152,-0.18060656234882425,33.34973819608216,-0.414231520173952,5.0,147.527395
990,33.55309025825339,-0.5762084782771809,33.38363020644403,-0.7817706036740312,5.0,147.527395
991,33.58698226861526,-0.9031824109826958,33.4175222168059,-0.9875380733618144,5.0,147.527395
992,33.62087427897713,-1.0121009587908227,33.451414227167774,-0.9949577439912792,5.0,147.527395
993,33.65476628933901,-0.8088196379900001,33.48530623752965,-0.7783084562704773,5.0,147.527395
994,33.688658299700876,-0.33693093767597104,33.51919824789152,-0.35087602733671935,5.0,147.527395
995,33.72255031006275,0.22425001794256796,33.55309025825339,0.20429213223399828,5.0,147.527395
996,33.756442320424625,0.6531273541405738,33.7903343307865,-0.47773547999795085,-1.0,-29.505479
997,33.79033433078649,0.8077570092116351,33.62087427897713,1.0856971992110005,5.0,147.527395
998,33.82422634114837,0.6919702045486159,33.65476628933901,1.142152759986487,5.0,147.527395
999,33.858118351510235,0.4249755437473131,33.688658299700876,0.9070884296105748,5.0,147.527395
1000,33.89201036187211,0.1453474688351682,33.72255031006275,0.47503749048771343,5.0,147.527395
1001,33.925902372233985,-0.07717282535959535,33.756442320424625,-0.022444225714306903,5.0,147.527395
1002,33.95979438259585,-0.2629202846536176,33.99368639295773,-0.03139801399434777,-1.0,-29.505479
1003,33.99368639295773,-0.47080420061184475,34.0275784033196,0.5596875844856205,-1.0,-29.505479
1004,34.0275784033196,-0.7205026353091257,34.06147041368148,1.0146555031455102,-1.0,-29.505479
1005,34.06147041368147,-0.9514505617981296,34.095362424043344,1.1934788870155815,-1.0,-29.505479
1006,34.095362424043344,-1.0519904636428903,34.12925443440522,1.0592158667361384,-1.0,-29.505479
1007,34.12925443440522,-0.9367490180204159,34.163146444767094,0.6877511883942845,-1.0,-29.505479
1008,34.16314644476709,-0.611295618944305,34.19703845512896,0.21713424894474107,-1.0,-29.505479
1009,34.19703845512896,-0.17293126983658497,34.230930465490836,-0.22513486633345964,-1.0,-29.505479
1010,34.23093046549083,0.2510063479642481,34.264822475852704,-0.5674590983649995,-1.0,-29.505479
1011,34.264822475852704,0.5751846067710858,34.29871448621458,-0.7889916936354614,-1.0,-29.505479
1012,34.29871448621458,0.7826566551795666,34.12925443440522,1.0592158667361384,5.0,147.527395
1013,34.332606496576446,0.8947426865842408,34.16314644476709,0.6877511883943832,5.0,147.527395
1014,34.36649850693832,0.9240429763275805,34.400390517300195,-0.583966211833484,-1.0,-29.505479
1015,34.400390517300195,0.8589274814534688,34.43428252766207,-0.17345707591565387,-1.0,-29.505479
1016,34.43428252766206,0.6900767167112882,34.46817453802394,0.32727126242003873,-1.0,-29.505479
1017,34.46817453802394,0.4459837801174789,34.50206654838581,0.7748205168886769,-1.0,-29.505479
1018,34.502066548385805,0.19733940016218368,34.53595855874768,1.0227054123159214,-1.0,-29.505479
1019,34.53595855874768,0.022153759267481088,34.569850569109555,0.9929142169483995,-1.0,-29.505479
1020,34.569850569109555,-0.039699137372020285,34.60374257947143,0.7111490718664393,-1.0,-29.505479
1021,34.60374257947142,-0.005331320867158422,34.6376345898333,0.28327707237329425,-1.0,-29.505479
1022,34.6376345898333,0.07166780031684086,34.67152660019517,-0.16662969416623338,-1.0,-29.505479
1023,34.67152660019517,0.1404470539537001,34.70541861055705,-0.5513286357162492,-1.0,-29.505479
1024,34.70541861055704,0.17745915648462604,34.739310620918914,-0.8341235753039311,-1.0,-29.505479
1025,34.739310620918914,0.17971958985209605,34.77320263128079,-1.0025767587936192,-1.0,-29.505479
1026,34.77320263128079,0.13879630629410608,34.807094641642664,-1.0349347880250015,-1.0,-29.505479
1027,34.80709464164266,0.023831588245928837,34.84098665200453,-0.8950252329936529,-1.0,-29.505479
1028,34.84098665200453,-0.20580309424278412,34.874878662366406,-0.5643717624284499,-1.0,-29.505479
1029,34.8748786623664,-0.5623636002745935,34.908770672728274,-0.08501151259431557,-1.0,-29.505479
1030,34.908770672728274,-0.9933259996859459,34.94266268309015,0.4277353116056446,-1.0,-29.505479
1031,34.94266268309015,-1.3782138058459747,34.739310620918914,-0.8341235753039311,6.0,177.032874
1032,34.976554693452016,-1.5714048138750745,34.77320263128078,-1.0025767587935839,6.0,177.032874
1033,35.01044670381389,-1.472574914096774,34.80709464164266,-1.0349347880250308,6.0,177.032874
1034,35.044338714175765,-1.083259622817543,35.07823072453764,0.5846332657930027,-1.0,-29.505479
1035,35.07823072453763,-0.5119203081022757,35.11212273489951,0.20614016099541818,-1.0,-29.505479
1036,35.11212273489951,0.07726914957136811,35.14601474526138,-0.14764376679534494,-1.0,-29.505479
1037,35.146014745261375,0.5388542680698212,35.17990675562325,-0.41426011690070147,-1.0,-29.505479
1038,35.17990675562325,0.7986249114707042,34.976554693452016,0.823053269352078,6.0,177.032874
1039,35.213798765985125,0.859570279918123,35.01044670381389,0.9839088161749573,6.0,177.032874
1040,35.24769077634699,0.7692591245383876,35.04433871417576,0.8823784977749903,6.0,177.032874
1041,35.28158278670887,0.5786515358162047,35.07823072453763,0.5846332657930821,6.0,177.032874
1042,35.31547479707074,0.32313370969338784,35.34936680743262,0.3751310774738266,-1.0,-29.505479
1043,35.34936680743261,0.03632756035541844,35.383258817794484,0.8717857704383376,-1.0,-29.505479
1044,35.383258817794484,-0.22203769623151112,35.17990675562325,-0.41426011690070147,6.0,177.032874
1045,35.41715082815636,-0.35902208864958796,35.213798765985125,-0.5660871148715683,6.0,177.032874
1046,35.45104283851823,-0.28323349128213715,35.24769077634699,-0.581382268520216,6.0,177.032874
1047,35.4849348488801,0.03461913524173074,35.28158278670887,-0.43068109314128283,6.0,177.032874
1048,35.51882685924197,0.5214805534328516,35.315474797070735,-0.09845094169986957,6.0,177.032874
1049,35.552718869603844,1.0201008727560397,35.34936680743261,0.3751310774737225,6.0,177.032874
1050,35.58661087996572,1.3599273412244786,35.383258817794484,0.8717857704383376,6.0,177.032874
1051,35.620502890327586,1.4344339052507424,35.41715082815635,1.2232026857284815,6.0,177.032874
1052,35.65439490068946,1.2365892152972997,35.45104283851823,1.283565794867672,6.0,177.032874
1053,35.688286911051335,0.8382199130767045,35.4849348488801,1.003461272813669,6.0,177.032874
1054,35.7221789214132,0.3379589125800756,35.51882685924197,0.4557231085401443,6.0,177.032874
1055,35.75607093177508,-0.1819931752961598,35.552718869603844,-0.20448726611542054,6.0,177.032874
1056,35.789962942136945,-0.6649853138836849,35.58661087996571,-0.8164897369194826,6.0,177.032874
1057,35.82385495249882,-1.0609408444012187,35.620502890327586,-1.274172505268094,6.0,177.032874
1058,35.857746962860695,-1.3086674443456838,35.65439490068946,-1.5332337233682103,6.0,177.032874
1059,35.89163897322256,-1.345617119055504,35.68828691105133,-1.575254392221577,6.0,177.032874
1060,35.92553098358444,-1.143587996299698,35.7221789214132,-1.3743715488645505,6.0,177.032874
1061,35.95942299394631,-0.7410572555241803,35.95942299394631,1.043959721243882,0.0,0.0
1062,35.99331500430818,-0.241312377038545,35.99331500430818,0.3145292342529192,0.0,0.0
1063,36.027207014670054,0.22747087732616084,36.027207014670054,-0.43465034657792345,0.0,0.0
1064,36.06109902503193,0.5631434245898022,36.06109902503193,-1.0410056926491658,0.0,0.0
1065,36.0949910353938,0.7170626510566777,36.0949910353938,-1.4162173056999436,0.0,0.0
1066,36.12888304575567,0.68549009267145,36.12888304575567,-1.5187517023745873,0.0,0.0
1067,36.16277505611754,0.4829378247747763,36.16277505611754,-1.3207879462509895,0.0,0.0
1068,36.196667066479414,0.12776723516250252,36.196667066479414,-0.8148763123727861,0.0,0.0
1069,36.23055907684129,-0.3454069190170784,36.23055907684129,-0.05897261382208202,0.0,0.0
1070,36.264451087203156,-0.8602363879860967,36.264451087203156,0.7888789315148885,0.0,0.0
1071,36.29834309756503,-1.2901721618793618,36.29834309756503,1.4972197142805277,0.0,0.0
1072,36.332235107926905,-1.4887814885949837,36.332235107926905,1.8513163233319523,0.0,0.0
1073,36.36612711828877,-1.3530251164470413,36.36612711828877,1.7516346583791624,0.0,0.0
1074,36.40001912865065,-0.8849223773555744,36.40001912865065,1.2529663255122918,0.0,0.0
1075,36.433911139012515,-0.20881277851569005,36.433911139012515,0.5209475224076114,0.0,0.0
1076,36.46780314937439,0.4752692432533059,36.46780314937439,-0.2555955860364085,0.0,0.0
1077,36.501695159736265,0.9795885463420718,36.501695159736265,-0.9317965978406936,0.0,0.0
1078,36.53558717009813,1.205939340108018,36.53558717009813,-1.4163725054111374,0.0,0.0
1079,36.56947918046001,1.1671331660448756,36.56947918046001,-1.6406451113251979,0.0,0.0
1080,36.60337119082188,0.9474995017835609,36.60337119082188,-1.537712026304804,0.0,0.0
1081,36.63726320118375,0.6387235910695355,36.63726320118375,-1.0687402836147768,0.0,0.0
1082,36.671155211545624,0.29883456472202996,36.671155211545624,-0.2836361342144267,0.0,0.0
1083,36.7050472219075,-0.042588140863250794,36.7050472219075,0.6399305897256836,0.0,0.0
1084,36.73893923226937,-0.3487540906920423,36.73893923226937,1.4315188733926516,0.0,0.0
1085,36.77283124263124,-0.5489776708035035,36.77283124263124,1.835836332102397,0.0,0.0
1086,36.80672325299311,-0.5532669823453247,36.80672325299311,1.7314463410274603,0.0,0.0
1087,36.840615263354984,-0.3069376991183554,36.840615263354984,1.1825695133987773,0.0,0.0
1088,36.87450727371686,0.15338371120556443,36.87450727371686,0.3917864497003063,0.0,0.0
1089,36.908399284078726,0.6913221517423519,36.908399284078726,-0.40882843935180785,0.0,0.0
1090,36.9422912944406,1.1272636380955618,36.9422912944406,-1.0524731188947702,0.0,0.0
1091,36.976183304802476,1.3259669186819485,36.976183304802476,-1.463462846404761,0.0,0.0
1092,37.01007531516434,1.2547845320832078,37.01007531516434,-1.618721833337986,0.0,0.0
1093,37.04396732552622,0.9740374644893309,37.04396732552622,-1.498638902592554,0.0,0.0
1094,37.07785933588809,0.5738017264872206,37.07785933588809,-1.0816997371375827,0.0,0.0
1095,37.11175134624996,0.11219080448937711,37.11175134624996,-0.3910319050269516,0.0,0.0
1096,37.145643356611835,-0.3940591570018666,37.145643356611835,0.4526472598810667,0.0,0.0
1097,37.1795353669737,-0.9238758810765269,37.1795353669737,1.2319371811027178,0.0,0.0
1098,37.21342737733558,-1.4006528618642966,37.21342737733558,1.7086350375013337,0.0,0.0
1099,37.24731938769745,-1.6938611468291318,37.24731938769745,1.7335648587309742,0.0,0.0
1100,37.28121139805932,-1.6852825237454894,37.28121139805932,1.316994119066261,0.0,0.0
1101,37.315103408421194,-1.3515205019120193,37.315103408421194,0.6126743692473479,0.0,0.0
1102,37.34899541878307,-0.7957313851792168,37.34899541878307,-0.16810395260351257,0.0,0.0
1103,37.38288742914494,-0.20037045617479568,37.38288742914494,-0.8487081835842913,0.0,0.0
1104,37.41677943950681,0.26539278731492955,37.41677943950681,-1.3273382625053638,0.0,0.0
1105,37.45067144986868,0.5172719818729941,37.45067144986868,-1.55637125168978,0.0,0.0
1106,37.484563460230554,0.5621111805678153,37.484563460230554,-1.5023731353574135,0.0,0.0
1107,37.51845547059243,0.44938542006635773,37.51845547059243,-1.1386122902648135,0.0,0.0
1108,37.552347480954296,0.21873103439451236,37.552347480954296,-0.4851606339802863,0.0,0.0
1109,37.58623949131617,-0.11118984262369688,37.58623949131617,0.34061319716311894,0.0,0.0
1110,37.620131501678046,-0.508719269551884,37.620131501678046,1.1219833220272022,0.0,0.0
1111,37.65402351203991,-0.8878691786045122,37.65402351203991,1.616037170457764,0.0,0.0
1112,37.68791552240179,-1.1068412120084723,37.68791552240179,1.6664086387982362,0.0,0.0
1113,37.72180753276366,-1.0238096087783488,37.72180753276366,1.2804998370667542,0.0,0.0
1114,37.75569954312553,-0.579706881348774,37.75569954312553,0.6165395777971014,0.0,0.0
1115,37.789591553487405,0.1503631540871492,37.789591553487405,-0.10884098452987953,0.0,0.0
1116,37.82348356384927,0.97828921529212,37.82348356384927,-0.7253379480437566,0.0,0.0
1117,37.85737557421115,1.6860629723389091,37.85737557421115,-1.1562591776409514,0.0,0.0
1118,37.89126758457302,2.1154416299519876,37.89126758457302,-1.3893999616857753,0.0,0.0
1119,37.92515959493489,2.208402898360855,37.92515959493489,-1.4141126699026187,0.0,0.0
1120,37.959051605296764,1.9854895885177393,37.959051605296764,-1.1906400782422344,0.0,0.0
1121,37.99294361565864,1.4971234029734928,37.99294361565864,-0.6853604181432884,0.0,0.0
1122,38.02683562602051,0.796996377710787,38.02683562602051,0.0564448164817967,0.0,0.0
1123,38.06072763638238,-0.04152831154781275,38.06072763638238,0.8691829130278871,0.0,0.0
1124,38.09461964674425,-0.8907206733798949,38.09461964674425,1.5083041387343759,0.0,0.0
1125,38.128511657106124,-1.5646622970565265,38.128511657106124,1.7609154067618649,0.0,0.0
1126,38.162403667468,-1.8745124865254168,38.162403667468,1.5530464941151803,0.0,0.0
1127,38.196295677829866,-1.719316507070556,38.196295677829866,0.9792184671213254,0.0,0.0
1128,38.23018768819174,-1.1518617635236064,38.23018768819174,0.23830488468314706,0.0,0.0
1129,38.264079698553616,-0.3706745275865266,38.264079698553616,-0.47133803823540954,0.0,0.0
1130,38.29797170891548,0.3613092066938074,38.29797170891548,-1.0217883452258583,0.0,0.0
1131,38.33186371927736,0.8247549083655469,38.33186371927736,-1.3538289652669033,0.0,0.0
1132,38.36575572963923,0.9209642442833722,38.36575572963923,-1.4313395602070065,0.0,0.0
1133,38.3996477400011,0.6846645367605081,38.3996477400011,-1.2141415901440815,0.0,0.0
1134,38.433539750362975,0.23788370782867233,38.433539750362975,-0.6875137794313368,0.0,0.0
1135,38.46743176072484,-0.2796254233381346,38.46743176072484,0.07474598412519971,0.0,0.0
1136,38.50132377108672,-0.7607090653996745,38.50132377108672,0.8802050771324774,0.0,0.0
1137,38.53521578144859,-1.1380629260390847,38.53521578144859,1.4701287578953728,0.0,0.0
1138,38.56910779181046,-1.3581657353760106,38.56910779181046,1.6368412891680133,0.0,0.0
1139,38.602999802172334,-1.3572611562481853,38.602999802172334,1.3296074966677733,0.0,0.0
1140,38.63689181253421,-1.0726413787720008,38.63689181253421,0.6745447757604738,0.0,0.0
1141,38.67078382289608,-0.4909786874195485,38.67078382289608,-0.10332157333387094,0.0,0.0
1142,38.70467583325795,0.3027960001450843,38.70467583325795,-0.79698579754303,0.0,0.0
1143,38.73856784361982,1.1229483149616133,38.73856784361982,-1.2921200053227564,0.0,0.0
1144,38.772459853981694,1.7416082302142948,38.772459853981694,-1.559091688845652,0.0,0.0
1145,38.80635186434357,1.9760594499542117,38.80635186434357,-1.5910064688124468,0.0,0.0
1146,38.840243874705436,1.7533702559888664,38.840243874705436,-1.3577299197250938,0.0,0.0
1147,38.87413588506731,1.1248850340650567,38.87413588506731,-0.8260898385541928,0.0,0.0
1148,38.908027895429186,0.24013870477338767,38.908027895429186,-0.031997671129806574,0.0,0.0
1149,38.94191990579105,-0.6950343212948219,38.90802789542918,-0.03199767112997309,1.0,29.505479
1150,38.97581191615293,-1.4622433177964769,38.94191990579105,0.8643597835415567,1.0,29.505479
1151,39.0097039265148,-1.8766410671323925,39.21305598868604,-1.3621554714181976,-6.0,-177.032874
1152,39.04359593687667,-1.8353904276874784,39.009703926514796,1.9450686096941336,1.0,29.505479
1153,39.077487947238545,-1.3555870501788607,39.04359593687667,1.776441208281844,1.0,29.505479
1154,39.11137995760041,-0.5792613027756303,39.07748794723854,1.1818297466180865,1.0,29.505479
1155,39.14527196796229,0.26966139362941727,39.11137995760041,0.3793576320415776,1.0,29.505479
1156,39.17916397832416,0.9666600567301354,39.14527196796229,-0.3965623523383805,1.0,29.505479
1157,39.21305598868603,1.368396611574817,39.179163978324155,-0.994026753952584,1.0,29.505479
1158,39.246947999047904,1.449853264924806,39.45030006121914,1.7892907171076324,-6.0,-177.032874
1159,39.28084000940978,1.277872109116452,39.48419207158101,1.7694365372378011,-6.0,-177.032874
1160,39.31473201977165,0.9458964593839286,39.51808408194288,1.2916367351259972,-6.0,-177.032874
1161,39.34862403013352,0.520669355920764,39.551976092304756,0.5414599475640627,-6.0,-177.032874
1162,39.38251604049539,0.03749727564179901,39.58586810266662,-0.24205867992090277,-6.0,-177.032874
1163,39.416408050857264,-0.46172459426382717,39.6197601130285,-0.8824482953958869,-6.0,-177.032874
1164,39.45030006121914,-0.8899098400300972,39.65365212339037,-1.3122958289588882,-6.0,-177.032874
1165,39.484192071581006,-1.1199118289597931,39.68754413375224,-1.5332905003645236,-6.0,-177.032874
1166,39.51808408194288,-1.043412464837459,39.721436144114115,-1.541852443644756,-6.0,-177.032874
1167,39.551976092304756,-0.6478696862638041,39.51808408194288,1.2916367351259972,1.0,29.505479
1168,39.58586810266662,-0.0535944681089879,39.55197609230475,0.54145994756422,1.0,29.505479
1169,39.6197601130285,0.5257969170304854,39.58586810266662,-0.24205867992090277,1.0,29.505479
1170,39.65365212339037,0.8834336786981614,39.6197601130285,-0.8824482953958869,1.0,29.505479
1171,39.68754413375224,0.9178470150828152,39.653652123390366,-1.312295828958798,1.0,29.505479
1172,39.721436144114115,0.6673701574795273,39.92478820628535,1.7073331923389228,-6.0,-177.032874
1173,39.75532815447598,0.2640454128543183,39.95868021664722,1.418705179884831,-6.0,-177.032874
1174,39.78922016483786,-0.15267232338924336,39.75532815447598,-1.2956961231761226,1.0,29.505479
1175,39.82311217519973,-0.5004784330036091,39.78922016483786,-0.7567117501263633,1.0,29.505479
1176,39.8570041855616,-0.7607800770461824,39.823112175199725,0.02537682628522775,1.0,29.505479
1177,39.890896195923474,-0.9381170196735843,39.8570041855616,0.8676086354565157,1.0,29.505479
1178,39.92478820628535,-1.0151444191161063,39.890896195923474,1.5030698271867253,1.0,29.505479
1179,39.95868021664722,-0.9432121703395147,40.16203227881845,-1.394680916438221,-6.0,-177.032874
1180,39.99257222700909,-0.6771454730873597,40.195924289180326,-1.1782106358977271,-6.0,-177.032874
1181,40.02646423737096,-0.22598684117728518,40.22981629954219,-0.687418410735818,-6.0,-177.032874
1182,40.060356247732834,0.3231203137234422,40.26370830990407,0.06173377935887536,-6.0,-177.032874
1183,40.09424825809471,0.8305686032524068,40.29760032026594,0.9290415536960931,-6.0,-177.032874
1184,40.128140268456576,1.1638894164602105,40.33149233062781,1.6642225162115816,-6.0,-177.032874
1185,40.16203227881845,1.2519131644514396,40.365384340989685,2.0145253391205955,-6.0,-177.032874
1186,40.195924289180326,1.1018463588250123,40.39927635135156,1.8574282489887515,-6.0,-177.032874
1187,40.22981629954219,0.7764609540507225,40.43316836171343,1.2640385338886937,-6.0,-177.032874
1188,40.26370830990407,0.35486020468082596,40.4670603720753,0.4490498333017003,-6.0,-177.032874
1189,40.29760032026594,-0.09369992770179583,40.50095238243718,-0.35242559511520816,-6.0,-177.032874
1190,40.33149233062781,-0.510044143985305,40.534844392799044,-0.9909667653714527,-6.0,-177.032874
1191,40.365384340989685,-0.8318693421451068,40.56873640316092,-1.4236264954902358,-6.0,-177.032874
1192,40.39927635135155,-0.9923431776890013,40.60262841352279,-1.6535576440050848,-6.0,-177.032874
1193,40.43316836171343,-0.9436288760453969,40.39927635135155,1.8574282489888758,1.0,29.505479
1194,40.4670603720753,-0.6910632355710883,40.43316836171343,1.2640385338886937,1.0,29.505479
1195,40.50095238243717,-0.30697268470976685,40.467060372075295,0.4490498333018712,1.0,29.505479
1196,40.534844392799044,0.09461682010172005,40.50095238243717,-0.35242559511507426,1.0,29.505479
1197,40.56873640316092,0.4096207188333178,40.534844392799044,-0.9909667653714527,1.0,29.505479
1198,40.60262841352279,0.5876746449861214,40.56873640316091,-1.423626495490145,1.0,29.505479
1199,40.63652042388466,0.6402752345631237,40.60262841352279,-1.6535576440050848,1.0,29.505479
1200,40.670412434246536,0.6112346445555848,40.63652042388466,-1.6567241068068115,1.0,29.505479
1201,40.704304444608404,0.5319213984200843,40.67041243424653,-1.3696119985086261,1.0,29.505479
1202,40.73819645497028,0.39298786636332306,40.94154851714151,-0.08085673615764935,-6.0,-177.032874
1203,40.772088465332146,0.1544385853127022,40.97544052750338,-0.7594122667468539,-6.0,-177.032874
1204,40.80598047569402,-0.20871736799576646,41.009332537865255,-1.2323547898832028,-6.0,-177.032874
1205,40.839872486055896,-0.6549119086468449,41.04322454822713,-1.495372351247216,-6.0,-177.032874
1206,40.87376449641776,-1.0596123803680841,41.077116558589,-1.5521861346118995,-6.0,-177.032874
1207,40.90765650677964,-1.2582366897607715,41.11100856895087,-1.3616761291974606,-6.0,-177.032874
1208,40.94154851714151,-1.132434953920015,41.14490057931275,-0.8649366871953953,-6.0,-177.032874
1209,40.97544052750338,-0.6865677561500647,41.178792589674615,-0.07298262831479826,-6.0,-177.032874
1210,41.009332537865255,-0.05967073376112963,41.21268460003649,0.8628960059434504,-6.0,-177.032874
1211,41.04322454822712,0.5391688522650109,41.24657661039836,1.6719758384563008,-6.0,-177.032874
1212,41.077116558589,0.9297502317794548,41.28046862076023,2.08202638560307,-6.0,-177.032874
1213,41.11100856895087,1.0315505513323446,41.314360631122106,1.9611918884565616,-6.0,-177.032874
1214,41.14490057931274,0.8716312829326078,41.348252641483974,1.3858058951311074,-6.0,-177.032874
1215,41.178792589674615,0.5421872374154835,41.38214465184585,0.587255904919852,-6.0,-177.032874
1216,41.21268460003649,0.14783633600470172,41.41603666220772,-0.1822360975041461,-6.0,-177.032874
1217,41.24657661039836,-0.2250316955143642,41.44992867256959,-0.7702391818408949,-6.0,-177.032874
1218,41.28046862076023,-0.5122767189376064,41.483820682931466,-1.1534563513718474,-6.0,-177.032874
1219,41.314360631122106,-0.6655684937791829,41.75495676582644,1.8017204370902635,-13.0,-383.571227
1220,41.348252641483974,-0.6521220613448043,41.78884877618831,1.5541399718656932,-13.0,-383.571227
1221,41.38214465184585,-0.4645214126725579,41.822740786550185,0.9007152464791729,-13.0,-383.571227
1222,41.416036662207716,-0.13227841579614835,41.85663279691205,0.08574074881762017,-13.0,-383.571227
1223,41.44992867256959,0.27724733632269866,42.33112094197826,-0.157784820285485,-26.0,-767.142454
1224,41.483820682931466,0.6748907330417924,42.36501295234014,-0.7880059394769756,-26.0,-767.142454
1225,41.51771269329333,0.9764106581086734,42.398904962702005,-1.2374959538402304,-26.0,-767.142454
1226,41.55160470365521,1.1247076350067473,42.43279697306388,-1.5019222510443926,-26.0,-767.142454
1227,41.58549671401708,1.0961875889808637,42.466688983425755,-1.55037926570233,-26.0,-767.142454
1228,41.61938872437895,0.893416407524845,41.61938872437895,-0.7966067520945374,0.0,0.0
1229,41.653280734740825,0.5364857565370614,41.653280734740825,-0.04240078464218235,0.0,0.0
1230,41.68717274510269,0.06377251476418343,41.68717274510269,0.8273378502878034,0.0,0.0
1231,41.72106475546457,-0.45875745194984574,42.60225702487324,1.1775741094564354,-26.0,-767.142454
1232,41.75495676582644,-0.9327572790925331,42.636149035235114,1.9195361749168967,-26.0,-767.142454
1233,41.78884877618831,-1.243431099614548,42.67004104559698,2.16615809451906,-26.0,-767.142454
1234,41.822740786550185,-1.3007711573467295,42.703933055958856,1.8524313180370584,-26.0,-767.142454
1235,41.85663279691206,-1.0880866459918235,42.09387686944516,-0.4602890126423434,-7.0,-206.538353
1236,41.89052480727393,-0.6832554400085517,42.12776887980703,0.41517683694292645,-7.0,-206.538353
1237,41.9244168176358,-0.2283866186437821,42.1616608901689,1.2399857714920786,-7.0,-206.538353
1238,41.958308827997676,0.13910140926396533,42.19555290053078,1.7425694959995761,-7.0,-206.538353
1239,41.992200838359544,0.34797587266199903,43.110637180301325,1.734800903658049,-33.0,-973.6808070000001
1240,42.02609284872142,0.4062880876383531,43.1445291906632,1.807823478327226,-33.0,-973.6808070000001
1241,42.059984859083286,0.36457634069979505,42.29722893161639,0.5968290062470465,-7.0,-206.538353
1242,42.09387686944516,0.2644162861348719,42.33112094197826,-0.157784820285485,-7.0,-206.538353
1243,42.127768879807036,0.11211780295607135,42.56836501451137,0.19857212749355765,-13.0,-383.571227
1244,42.1616608901689,-0.10717039484730027,43.72069336681502,-0.41567409316035464,-46.0,-1357.252034
1245,42.19555290053078,-0.3899221433319518,43.754585377176895,-1.0377042977192812,-46.0,-1357.252034
1246,42.22944491089265,-0.6805700552604951,43.78847738753877,-1.389748258712059,-46.0,-1357.252034
1247,42.26333692125452,-0.8716655694278052,43.82236939790064,-1.5304433214051454,-46.0,-1357.252034
1248,42.297228931616395,-0.8463267931422962,43.85626140826251,-1.4988964119523611,-46.0,-1357.252034
1249,42.33112094197826,-0.5442271737332621,43.89015341862438,-1.2478311718172015,-46.0,-1357.252034
1250,42.36501295234014,-0.011638460127418999,43.924045428986254,-0.6895132597892795,-46.0,-1357.252034
1251,42.39890496270201,0.6014017424995555,44.19518151188123,-0.32644435831067353,-53.0,-1563.790387
1252,42.43279697306388,1.1025115272588961,44.2290735222431,-0.9566629093493869,-53.0,-1563.790387
1253,42.466688983425755,1.3417849840401421,40.704304444608404,-0.7554235092320176,52.0,1534.284908
1254,42.50058099378763,1.2677915767033692,42.09387686944516,-0.4602890126423434,12.0,354.065748
1255,42.5344730041495,0.9265108521422671,42.12776887980703,0.41517683694292645,12.0,354.065748
1256,42.56836501451137,0.42028268836522625,42.1616608901689,1.2399857714920786,12.0,354.065748
1257,42.602257024873246,-0.1303343094005406,42.19555290053078,1.7425694959995761,12.0,354.065748
1258,42.636149035235114,-0.596662797792992,42.229444910892646,1.7581293081897151,12.0,354.065748
1259,42.67004104559699,-0.8423626265020685,42.26333692125452,1.3133193008598905,12.0,354.065748
1260,42.703933055958856,-0.7541638725190056,42.29722893161639,0.5968290062470465,12.0,354.065748
1261,42.73782506632073,-0.31138123338990037,42.33112094197826,-0.157784820285485,12.0,354.065748
1262,42.771717076682606,0.3550477222484729,42.36501295234014,-0.7880059394769756,12.0,354.065748
1263,42.80560908704447,0.9819571619212,42.398904962702005,-1.2374959538402304,12.0,354.065748
