frame_idx,t_rppg,rppg_n,t_gt_pair,ppg_n_pair,lag_samples,lag_frames
0,0.0,-0.0639565475149146,-0.03379458777649084,0.03014139977326523,1.0,29.590537000000005
1,0.03379458777649084,0.6281967102176944,0.0,0.03014139977326523,1.0,29.590537000000005
2,0.06758917555298168,1.1140777528088945,0.03379458777649084,0.6422983109367707,1.0,29.590537000000005
3,0.10138376332947252,1.2706157804520983,0.06758917555298169,1.1968351069602228,1.0,29.590537000000005
4,0.13517835110596335,1.106861381259319,0.10138376332947252,1.6230295780680422,1.0,29.590537000000005
5,0.1689729388824542,0.7541324116311152,0.13517835110596338,1.8474819496666897,1.0,29.590537000000005
6,0.20276752665894504,0.4041528695220747,0.1689729388824542,1.8278327266930596,1.0,29.590537000000005
7,0.2365621144354359,0.22022310977874127,0.20276752665894507,1.5834200923005364,1.0,29.590537000000005
8,0.2703567022119267,0.2576381152849763,0.23656211443543587,1.1946296393099622,1.0,29.590537000000005
9,0.30415128998841756,0.4314671324036311,0.2703567022119267,0.7654589817584712,1.0,29.590537000000005
10,0.3379458777649084,0.5571487382828842,0.30415128998841756,0.3722656580107638,1.0,29.590537000000005
11,0.3717404655413992,0.4557531486342185,0.33794587776490836,0.03349231003463132,1.0,29.590537000000005
12,0.4055350533178901,0.07072080650107172,0.3717404655413992,-0.2782512456651834,1.0,29.590537000000005
13,0.43932964109438094,-0.4796565495170574,0.4055350533178901,-0.5897320817546958,1.0,29.590537000000005
14,0.4731242288708718,-0.9577597876460825,0.43932964109438094,-0.8796468305930156,1.0,29.590537000000005
15,0.5069188166473626,-1.1404887745015293,0.47312422887087174,-1.0671843837155843,1.0,29.590537000000005
16,0.5407134044238534,-0.9450195163748588,0.5069188166473626,-1.0511133024609627,1.0,29.590537000000005
17,0.5745079922003443,-0.46729553881739483,0.5407134044238535,-0.778492153067041,1.0,29.590537000000005
18,0.6083025799768351,0.08335777575099512,0.5745079922003443,-0.2976574780275762,1.0,29.590537000000005
19,0.6420971677533259,0.502827870983887,0.6083025799768351,0.24419495653473103,1.0,29.590537000000005
20,0.6758917555298168,0.6879335340694309,0.642097167753326,0.6637686409835508,1.0,29.590537000000005
21,0.7096863433063076,0.6596524238153032,0.6758917555298168,0.8291568147086706,1.0,29.590537000000005
22,0.7434809310827984,0.5158468446284861,0.7096863433063076,0.719305377984137,1.0,29.590537000000005
23,0.7772755188592894,0.3544032699110561,0.7434809310827986,0.4210712757805267,1.0,29.590537000000005
24,0.8110701066357802,0.21422849844491762,0.7772755188592894,0.06956187511717671,1.0,29.590537000000005
25,0.8448646944122711,0.06332307991947057,0.8110701066357803,-0.22854130773297834,1.0,29.590537000000005
26,0.8786592821887619,-0.16233654420750646,0.8448646944122711,-0.44187267399839236,1.0,29.590537000000005
27,0.9124538699652527,-0.49087948660596054,0.8786592821887619,-0.6063271363696837,1.0,29.590537000000005
28,0.9462484577417436,-0.8612119496485929,0.9124538699652528,-0.7722370268627544,1.0,29.590537000000005
29,0.9800430455182344,-1.129433502518687,0.9462484577417436,-0.9447087551621173,1.0,29.590537000000005
30,1.0138376332947252,-1.1448837953388125,0.9800430455182344,-1.0591913114176792,1.0,29.590537000000005
31,1.0476322210712161,-0.8505628802451276,1.0138376332947252,-1.0121070297416164,1.0,29.590537000000005
32,1.0814268088477068,-0.33619888126323794,1.047632221071216,-0.7301790273437749,1.0,29.590537000000005
33,1.1152213966241977,0.19649722752321522,1.0814268088477068,-0.2340920071702452,1.0,29.590537000000005
34,1.1490159844006886,0.5348089391391004,1.1152213966241977,0.34825077955820855,1.0,29.590537000000005
35,1.1828105721771793,0.5602205942076093,1.1490159844006884,0.8334120821257931,1.0,29.590537000000005
36,1.2166051599536702,0.3008305030652676,1.1828105721771793,1.0713214391348909,1.0,29.590537000000005
37,1.2503997477301612,-0.09050813703166746,1.2166051599536702,1.0183336897382753,1.0,29.590537000000005
38,1.2841943355066519,-0.41394948765384415,1.250399747730161,0.7510475687359501,1.0,29.590537000000005
39,1.3179889232831428,-0.5124632749128757,1.2841943355066519,0.415065188595018,1.0,29.590537000000005
40,1.3517835110596337,-0.32831263740882466,1.3179889232831428,0.14221249802187386,1.0,29.590537000000005
41,1.3855780988361244,0.09646210710562171,1.3517835110596335,-0.01402379117779426,1.0,29.590537000000005
42,1.4193726866126153,0.6634802905768968,1.3855780988361244,-0.08929949347407816,1.0,29.590537000000005
43,1.4531672743891062,1.26805830379252,1.4193726866126153,-0.1633432107592228,1.0,29.590537000000005
44,1.486961862165597,1.8208116281927618,1.453167274389106,-0.2895620082246224,1.0,29.590537000000005
45,1.5207564499420878,2.235474056403116,1.486961862165597,-0.44425201024465133,1.0,29.590537000000005
46,1.5545510377185787,2.4113603570654965,1.5207564499420878,-0.5290568988559489,1.0,29.590537000000005
47,1.5883456254950696,2.245757438402555,1.5545510377185787,-0.4289665930840317,1.0,29.590537000000005
48,1.6221402132715603,1.6829380194418564,1.5883456254950694,-0.09333565871525934,1.0,29.590537000000005
49,1.6559348010480512,0.7679653666732787,1.6221402132715603,0.41042670739364867,1.0,29.590537000000005
50,1.6897293888245422,-0.33993865378909144,1.6559348010480512,0.9086323718993929,1.0,29.590537000000005
51,1.7235239766010328,-1.415040152159138,1.689729388824542,1.1987794757699373,1.0,29.590537000000005
52,1.7573185643775238,-2.251247918052186,1.7235239766010328,1.1514392743178945,1.0,29.590537000000005
53,1.7911131521540147,-2.738425504633812,1.7573185643775238,0.7772977314533122,1.0,29.590537000000005
54,1.8249077399305054,-2.8896169302319366,1.7911131521540145,0.21902207623951264,1.0,29.590537000000005
55,1.8587023277069963,-2.8104575166200707,1.8249077399305054,-0.3272274951155947,1.0,29.590537000000005
56,1.8924969154834872,-2.6323546739148926,1.8587023277069963,-0.7130795318404805,1.0,29.590537000000005
57,1.9262915032599779,-2.4472731798244425,1.892496915483487,-0.9015615983658202,1.0,29.590537000000005
58,1.9600860910364688,-2.2744676671067126,1.9262915032599779,-0.957464125297734,1.0,29.590537000000005
59,1.9938806788129597,-2.063856241657754,1.9600860910364688,-0.9754588591038262,1.0,29.590537000000005
60,2.0276752665894504,-1.7221495013765884,1.9938806788129595,-0.9960624357028952,1.0,29.590537000000005
61,2.0614698543659413,-1.1498616742606744,2.0276752665894504,-0.9671255962508569,1.0,29.590537000000005
62,2.0952644421424322,-0.2833213233016849,2.0614698543659413,-0.7795070277612164,1.0,29.590537000000005
63,2.129059029918923,0.8683045260436453,2.0952644421424322,-0.3564618348333816,1.0,29.590537000000005
64,2.1628536176954136,2.203541559754951,1.858702327706996,-0.7130795318404779,9.0,266.314833
65,2.1966482054719045,3.531135353095122,2.1628536176954136,0.9090879076209085,1.0,29.590537000000005
66,2.2304427932483954,4.5935672482339465,2.1966482054719045,1.3532423388156207,1.0,29.590537000000005
67,2.2642373810248864,5.1167118022679325,2.2304427932483954,1.42893865860907,1.0,29.590537000000005
68,2.2980319688013773,4.892035422775597,2.2642373810248864,1.1225151605673505,1.0,29.590537000000005
69,2.331826556577868,3.875720305444187,2.2980319688013773,0.5763877596459243,1.0,29.590537000000005
70,2.3656211443543587,2.2549934972812657,2.3318265565778677,0.0041311306327800335,1.0,29.590537000000005
71,2.3994157321308496,0.42281647110536014,2.3656211443543587,-0.42541652929361157,1.0,29.590537000000005
72,2.4332103199073405,-1.1548237907944316,2.3994157321308496,-0.6618957246173247,1.0,29.590537000000005
73,2.4670049076838314,-2.120359615917086,2.4332103199073405,-0.7640895444542747,1.0,29.590537000000005
74,2.5007994954603223,-2.354872659654133,2.4670049076838314,-0.822187994760327,1.0,29.590537000000005
75,2.5345940832368132,-1.9914494351098972,2.5007994954603223,-0.8692547416035169,1.0,29.590537000000005
76,2.5683886710133037,-1.321869493381881,1.250399747730161,0.7510475687359501,39.0,1154.0309430000002
77,2.6021832587897946,-0.6570046657281015,1.2841943355066519,0.415065188595018,39.0,1154.0309430000002
78,2.6359778465662855,-0.20561571269119583,1.3179889232831428,0.14221249802187386,39.0,1154.0309430000002
79,2.6697724343427764,-0.018776637528713645,2.6359778465662855,0.4574230189588,1.0,29.590537000000005
80,2.7035670221192674,-0.018868101339781233,2.6697724343427764,1.085883858882704,1.0,29.590537000000005
81,2.7373616098957583,-0.08892775329692845,2.7035670221192674,1.465021793303184,1.0,29.590537000000005
82,2.7711561976722487,-0.16125193136306842,2.737361609895758,1.4438491854820628,1.0,29.590537000000005
83,2.8049507854487397,-0.24951552520650366,2.7711561976722487,1.0435357577616342,1.0,29.590537000000005
84,2.8387453732252306,-0.4155500122178279,2.8049507854487397,0.4409237400448843,1.0,29.590537000000005
85,2.8725399610017215,-0.707128417729351,2.8387453732252306,-0.1360256983256803,1.0,29.590537000000005
86,2.9063345487782124,-1.111919387682733,2.8725399610017215,-0.5300222764902406,1.0,29.590537000000005
87,2.9401291365547033,-1.5511630850045595,2.9063345487782124,-0.7168582513312975,1.0,29.590537000000005
88,2.973923724331194,-1.909967813075718,2.940129136554703,-0.7765830758829807,1.0,29.590537000000005
89,3.0077183121076847,-2.0838585954040565,2.703567022119267,1.465021793303179,9.0,266.314833
90,3.0415128998841756,-2.0159199004709163,2.737361609895758,1.4438491854820628,9.0,266.314833
91,3.0753074876606665,-1.7067331852597105,2.7711561976722487,1.0435357577616342,9.0,266.314833
92,3.1091020754371574,-1.1976764699214613,2.8049507854487397,0.4409237400448843,9.0,266.314833
93,3.1428966632136484,-0.5454888639864871,2.8387453732252306,-0.1360256983256803,9.0,266.314833
94,3.1766912509901393,0.19145279629602274,2.8725399610017215,-0.5300222764902406,9.0,266.314833
95,3.2104858387666297,0.9494379744383588,2.9063345487782124,-0.7168582513312975,9.0,266.314833
96,3.2442804265431207,1.650109868874059,2.9401291365547033,-0.7765830758829815,9.0,266.314833
97,3.2780750143196116,2.200824824596301,2.9739237243311942,-0.8028336085335284,9.0,266.314833
98,3.3118696020961025,2.510099458905601,3.007718312107685,-0.8175493285923653,9.0,266.314833
99,3.3456641898725934,2.5123736796130185,3.041512899884176,-0.7510789944090385,9.0,266.314833
100,3.3794587776490843,2.1905746019910968,3.075307487660667,-0.5017964856091924,9.0,266.314833
101,3.413253365425575,1.5869342173508363,3.109102075437157,-0.033690446096637905,9.0,266.314833
102,3.4470479532020657,0.8004578367536634,3.142896663213648,0.5594020185963885,9.0,266.314833
103,3.4808425409785566,-0.026220959845798527,3.176691250990139,1.0758253756376055,9.0,266.314833
104,3.5146371287550475,-0.7310591672458253,3.2104858387666297,1.3086418625166891,9.0,266.314833
105,3.5484317165315384,-1.1690349263926751,3.2442804265431207,1.1634902916731265,9.0,266.314833
106,3.5822263043080294,-1.2535514503083565,3.2780750143196116,0.7119750039902131,9.0,266.314833
107,3.61602089208452,-0.9864859226576967,3.3118696020961025,0.14460231262554063,9.0,266.314833
108,3.6498154798610107,-0.4611837603986604,3.3456641898725934,-0.3430872705361014,9.0,266.314833
109,3.6836100676375017,0.1665421516523793,3.3794587776490843,-0.6539292875085934,9.0,266.314833
110,3.7174046554139926,0.7300168918985259,3.4132533654255752,-0.8164288749677728,9.0,266.314833
111,3.7511992431904835,1.1047371951349716,3.447047953202066,-0.9250410355293401,9.0,266.314833
112,3.7849938309669744,1.238415089689294,3.7174046554139926,1.454984322262885,2.0,59.18107400000001
113,3.818788418743465,1.14549931456561,3.751199243190483,1.31073893974434,2.0,59.18107400000001
114,3.8525830065199558,0.8762689688568219,3.784993830966974,0.8715099469210347,2.0,59.18107400000001
115,3.8863775942964467,0.4846350685815999,3.818788418743465,0.3472328344186161,2.0,59.18107400000001
116,3.9201721820729376,0.01338854042774279,3.8525830065199558,-0.07856677463386079,2.0,59.18107400000001
117,3.9539667698494285,-0.4983882212652687,4.156734296508374,0.9814657048031615,-6.0,-177.54322200000001
118,3.9877613576259194,-0.9933467647866908,4.1905288842848645,1.4351701090896483,-6.0,-177.54322200000001
119,4.02155594540241,-1.3787838573162363,4.1905288842848645,1.4351701090896483,-5.0,-147.95268500000003
120,4.055350533178901,-1.5391470078979193,4.494680174273282,-1.1615982127680227,-13.0,-384.67698100000007
121,4.089145120955392,-1.3863496868480123,4.528474762049773,-1.1682016680574008,-13.0,-384.67698100000007
122,4.122939708731883,-0.9212567822397364,4.562269349826264,-0.9075941727672323,-13.0,-384.67698100000007
123,4.156734296508374,-0.2588811275637485,4.596063937602755,-0.3386565438102908,-13.0,-384.67698100000007
124,4.1905288842848645,0.40841910581062174,4.6298585253792455,0.4145699960362876,-13.0,-384.67698100000007
125,4.224323472061355,0.8871458923372215,4.663653113155736,1.1013014161762822,-13.0,-384.67698100000007
126,4.258118059837846,1.0496923671882517,4.697447700932227,1.471465733404063,-13.0,-384.67698100000007
127,4.291912647614337,0.8625182701288784,4.697447700932227,1.471465733404063,-12.0,-355.08644400000003
128,4.325707235390827,0.3803089590882136,4.494680174273282,-1.1615982127680227,-5.0,-147.95268500000003
129,4.359501823167318,-0.27609701217884197,4.528474762049773,-1.1682016680574008,-5.0,-147.95268500000003
130,4.393296410943809,-0.9490813670309829,4.562269349826264,-0.9075941727672323,-5.0,-147.95268500000003
131,4.4270909987203,-1.4798012664088223,4.596063937602755,-0.3386565438102908,-5.0,-147.95268500000003
132,4.460885586496791,-1.7464293002207567,4.6298585253792455,0.4145699960362876,-5.0,-147.95268500000003
133,4.494680174273282,-1.696152769813323,4.663653113155736,1.1013014161762822,-5.0,-147.95268500000003
134,4.528474762049773,-1.359102005461394,4.697447700932227,1.471465733404063,-5.0,-147.95268500000003
135,4.562269349826264,-0.8348996200479445,4.224323472061355,1.4806736662748585,10.0,295.90537000000006
136,4.596063937602755,-0.25403433916962304,4.258118059837846,1.1232641272896016,10.0,295.90537000000006
137,4.6298585253792455,0.26880214774574035,4.291912647614337,0.5367442770189035,10.0,295.90537000000006
138,4.663653113155736,0.6677989514006955,4.325707235390828,-0.04739505784352633,10.0,295.90537000000006
139,4.697447700932227,0.9337270184223554,4.866420639814682,-0.4687228683385478,-5.0,-147.95268500000003
140,4.731242288708717,1.0980412159097086,4.900215227591172,-0.7054012726812868,-5.0,-147.95268500000003
141,4.765036876485208,1.2033636250897357,4.934009815367663,-0.8975438280521659,-5.0,-147.95268500000003
142,4.798831464261699,1.273232220119031,4.967804403144154,-1.0865963315456544,-5.0,-147.95268500000003
143,4.83262605203819,1.2944288958499401,5.001598990920645,-1.2102068411178526,-5.0,-147.95268500000003
144,4.866420639814681,1.2226384570561883,5.0353935786971356,-1.1311304418315604,-5.0,-147.95268500000003
145,4.900215227591172,1.0131732491185097,5.0691881664736265,-0.7392521565626926,-5.0,-147.95268500000003
146,4.934009815367663,0.662665024836598,5.102982754250117,-0.05627079534016394,-5.0,-147.95268500000003
147,4.967804403144154,0.2340160750584912,5.136777342026608,0.734707398084047,-5.0,-147.95268500000003
148,5.001598990920645,-0.15955951791435638,5.170571929803099,1.3645134630345115,-5.0,-147.95268500000003
149,5.0353935786971356,-0.4088723640661384,5.20436651757959,1.6157637944078609,-5.0,-147.95268500000003
150,5.0691881664736265,-0.46636482817903363,5.238161105356081,1.4354030190216367,-5.0,-147.95268500000003
151,5.102982754250117,-0.36446530914474234,5.0353935786971356,-1.1311304418315604,2.0,59.18107400000001
152,5.136777342026607,-0.18085211069584292,5.069188166473626,-0.7392521565627028,2.0,59.18107400000001
153,5.170571929803098,0.02162849847401478,5.339544868685553,-0.10113684667115343,-5.0,-147.95268500000003
154,5.204366517579589,0.2312569419948006,5.373339456462044,-0.4264852292659082,-5.0,-147.95268500000003
155,5.23816110535608,0.4677325344041042,5.407134044238535,-0.6516357757607846,-5.0,-147.95268500000003
156,5.271955693132571,0.7218129775445898,5.440928632015026,-0.854963556865461,-5.0,-147.95268500000003
157,5.305750280909062,0.91102731141685,5.4747232197915165,-1.0442227790215959,-5.0,-147.95268500000003
158,5.339544868685553,0.9016735016610761,5.271955693132571,0.9499244617563422,2.0,59.18107400000001
159,5.373339456462044,0.5911748887258462,5.305750280909062,0.3774258929734012,2.0,59.18107400000001
160,5.407134044238535,-0.012032733528645832,5.339544868685553,-0.10113684667115343,2.0,59.18107400000001
161,5.440928632015026,-0.7766176646182622,5.373339456462044,-0.4264852292659082,2.0,59.18107400000001
162,5.4747232197915165,-1.5134459086804377,5.407134044238535,-0.6516357757607846,2.0,59.18107400000001
163,5.5085178075680075,-2.0640801843272696,5.440928632015026,-0.854963556865461,2.0,59.18107400000001
164,5.5423123953444975,-2.348493679567418,5.474723219791516,-1.044222779021591,2.0,59.18107400000001
165,5.576106983120988,-2.3525622438332903,5.508517807568007,-1.124654909436853,2.0,59.18107400000001
166,5.609901570897479,-2.0881088357876383,5.5423123953444975,-0.9585193966954886,2.0,59.18107400000001
167,5.64369615867397,-1.5723171439083712,5.576106983120988,-0.4770986365142348,2.0,59.18107400000001
168,5.677490746450461,-0.8441749681384867,5.609901570897479,0.23542245351695626,2.0,59.18107400000001
169,5.711285334226952,0.0056736213264432945,5.880258273109407,-0.5518419344417036,-5.0,-147.95268500000003
170,5.745079922003443,0.8305353338387784,5.9140528608858975,-0.747845186496747,-5.0,-147.95268500000003
171,5.778874509779934,1.4647701051355542,5.9478474486623885,-0.9504132728168704,-5.0,-147.95268500000003
172,5.812669097556425,1.7830608254406837,5.981642036438879,-1.11997266513994,-5.0,-147.95268500000003
173,5.846463685332916,1.7477440856872464,6.01543662421537,-1.1284371062995848,-5.0,-147.95268500000003
174,5.880258273109407,1.4204833989662975,6.049231211991861,-0.8507293016531134,-5.0,-147.95268500000003
175,5.9140528608858975,0.9335136423907914,6.083025799768352,-0.27477010042673244,-5.0,-147.95268500000003
176,5.947847448662388,0.43407682927120783,6.116820387544842,0.4505664183923122,-5.0,-147.95268500000003
177,5.9816420364388785,0.030987106271538174,6.150614975321333,1.0709589786022118,-5.0,-147.95268500000003
178,6.015436624215369,-0.22636937774754318,6.184409563097824,1.3562564064172284,-5.0,-147.95268500000003
179,6.04923121199186,-0.3286008847838856,5.9816420364388785,-1.1199726651399398,2.0,59.18107400000001
180,6.083025799768351,-0.2724094598609868,6.015436624215369,-1.1284371062995922,2.0,59.18107400000001
181,6.116820387544842,-0.052722580403039246,6.04923121199186,-0.8507293016531285,2.0,59.18107400000001
182,6.150614975321333,0.3048140963834131,6.083025799768351,-0.2747701004267515,2.0,59.18107400000001
183,6.184409563097824,0.705605331165646,6.116820387544842,0.4505664183923122,2.0,59.18107400000001
184,6.218204150874315,0.9973844736086419,6.150614975321333,1.0709589786022118,2.0,59.18107400000001
185,6.251998738650806,1.0461535359211243,6.184409563097824,1.3562564064172284,2.0,59.18107400000001
186,6.285793326427297,0.8238586197545322,6.218204150874315,1.2221760479004702,2.0,59.18107400000001
187,6.319587914203788,0.4307035614583938,6.251998738650806,0.7661590433139331,2.0,59.18107400000001
188,6.3533825019802785,0.02609735077502394,6.285793326427297,0.1976211456578555,2.0,59.18107400000001
189,6.387177089756769,-0.27818430263918176,6.319587914203787,-0.2870646078030051,2.0,59.18107400000001
190,6.4209716775332595,-0.476665723943033,6.589944616415714,0.4494241017166035,-5.0,-147.95268500000003
191,6.45476626530975,-0.6379921899547676,6.623739204192205,1.133186401136722,-5.0,-147.95268500000003
192,6.488560853086241,-0.8163228867368799,6.657533791968696,1.5503303089497837,-5.0,-147.95268500000003
193,6.522355440862732,-0.9839247097283454,6.691328379745187,1.5509372953164091,-5.0,-147.95268500000003
194,6.556150028639223,-1.0398428907344903,6.725122967521678,1.1650494860527298,-5.0,-147.95268500000003
195,6.589944616415714,-0.8860366017082436,6.488560853086241,-0.9755101318429866,3.0,88.77161100000001
196,6.623739204192205,-0.5112451342084664,6.522355440862732,-0.7513535588174459,3.0,88.77161100000001
197,6.657533791968696,-0.019980504515006003,6.556150028639223,-0.2504044883234176,3.0,88.77161100000001
198,6.691328379745187,0.41410924034755825,6.860301318627641,-0.7398286604350464,-5.0,-147.95268500000003
199,6.725122967521678,0.6387214318927791,6.894095906404132,-0.9464025312336913,-5.0,-147.95268500000003
200,6.758917555298169,0.5993764679111743,6.927890494180623,-1.1163052955372008,-5.0,-147.95268500000003
201,6.792712143074659,0.3575727066939916,6.961685081957113,-1.2073001281259443,-5.0,-147.95268500000003
202,6.82650673085115,0.04403026350603475,6.995479669733604,-1.1056749695778636,-5.0,-147.95268500000003
203,6.8603013186276405,-0.2219433721417915,6.758917555298168,0.5727358902435649,3.0,88.77161100000001
204,6.894095906404131,-0.39687047310879225,6.82650673085115,-0.4504155409928354,2.0,59.18107400000001
205,6.927890494180622,-0.5218796088081312,6.8603013186276405,-0.7398286604350409,2.0,59.18107400000001
206,6.961685081957113,-0.6730569066361769,6.894095906404131,-0.9464025312336869,2.0,59.18107400000001
207,6.995479669733604,-0.8885929691627331,6.927890494180622,-1.1163052955371984,2.0,59.18107400000001
208,7.029274257510095,-1.1205123411267766,6.961685081957113,-1.2073001281259443,2.0,59.18107400000001
209,7.063068845286586,-1.2411352420607202,6.995479669733604,-1.1056749695778636,2.0,59.18107400000001
210,7.096863433063077,-1.1023370232994423,6.995479669733604,-1.1056749695778636,3.0,88.77161100000001
211,7.130658020839568,-0.6173676305328398,7.029274257510095,-0.7172278885677262,3.0,88.77161100000001
212,7.164452608616059,0.17752077172566114,7.096863433063077,0.6774784387312425,2.0,59.18107400000001
213,7.198247196392549,1.1152394991914185,7.130658020839567,1.263707262566879,2.0,59.18107400000001
214,7.23204178416904,1.9502646189429005,7.164452608616058,1.4947925361362786,2.0,59.18107400000001
215,7.265836371945531,2.4471451813664253,7.198247196392549,1.32603582483363,2.0,59.18107400000001
216,7.2996309597220215,2.4643539729068715,7.198247196392549,1.32603582483363,3.0,88.77161100000001
217,7.333425547498512,1.9990851717231914,7.23204178416904,0.8766931547343291,3.0,88.77161100000001
218,7.367220135275003,1.1817559596838028,7.265836371945531,0.34568462705454717,3.0,88.77161100000001
219,7.401014723051494,0.23087781277647365,7.2996309597220215,-0.10676511184856127,3.0,88.77161100000001
220,7.434809310827985,-0.613084405892669,7.367220135275003,-0.6787706706785515,2.0,59.18107400000001
221,7.468603898604476,-1.157423650764247,7.401014723051494,-0.9063378056912124,2.0,59.18107400000001
222,7.502398486380967,-1.3124522254191822,7.434809310827985,-1.1014885837194082,2.0,59.18107400000001
223,7.536193074157458,-1.1122383717145978,7.468603898604476,-1.1581973430302965,2.0,59.18107400000001
224,7.569987661933949,-0.6886230821984787,7.468603898604476,-1.1581973430302965,3.0,88.77161100000001
225,7.603782249710439,-0.2097347749782181,7.502398486380966,-0.9456524547118922,3.0,88.77161100000001
226,7.63757683748693,0.1833262635918372,7.536193074157457,-0.4181896256109796,3.0,88.77161100000001
227,7.671371425263421,0.4112739078132249,7.569987661933948,0.3135375814272686,3.0,88.77161100000001
228,7.7051660130399116,0.45850856002294,7.603782249710439,1.0096738498713758,3.0,88.77161100000001
229,7.7389606008164025,0.35661009181452236,7.63757683748693,1.418352206725236,3.0,88.77161100000001
230,7.772755188592893,0.16241894444107766,7.671371425263421,1.4090523824517895,3.0,88.77161100000001
231,7.806549776369384,-0.06406159361526909,7.7051660130399116,1.0345852243995526,3.0,88.77161100000001
232,7.840344364145875,-0.2787647963655449,7.7389606008164025,0.4836161749726673,3.0,88.77161100000001
233,7.874138951922366,-0.4650010313326948,7.772755188592893,-0.03929384482789652,3.0,88.77161100000001
234,7.907933539698857,-0.6310707502003936,7.806549776369384,-0.42330920491679414,3.0,88.77161100000001
235,7.941728127475348,-0.790180207135609,7.840344364145875,-0.6809857565915696,3.0,88.77161100000001
236,7.975522715251839,-0.9302532528192576,7.874138951922366,-0.8873699996406225,3.0,88.77161100000001
237,8.009317303028329,-0.9964797437497326,8.144495654134293,1.5174803902748717,-4.0,-118.36214800000002
238,8.04311189080482,-0.9102047794929453,8.178290241910783,1.3236340706364826,-4.0,-118.36214800000002
239,8.07690647858131,-0.6231116782750157,7.975522715251838,-1.1197268815331736,3.0,88.77161100000001
240,8.110701066357802,-0.17048177285536048,8.009317303028329,-0.7325133057283458,3.0,88.77161100000001
241,8.144495654134293,0.32433280752137295,8.550030707452184,0.31141094653831913,-12.0,-355.08644400000003
242,8.178290241910783,0.709404416974145,8.583825295228674,1.056792905266638,-12.0,-355.08644400000003
243,8.212084829687274,0.888168345912273,8.617619883005165,1.5284011137828442,-12.0,-355.08644400000003
244,8.245879417463765,0.8640303501818307,8.651414470781656,1.5698552343739154,-12.0,-355.08644400000003
245,8.279674005240256,0.7150472351571602,8.685209058558147,1.2152634024567321,-12.0,-355.08644400000003
246,8.313468593016747,0.5263548698480229,8.719003646334638,0.6542285821010512,-12.0,-355.08644400000003
247,8.347263180793238,0.3365842696237086,8.752798234111129,0.11110582473340436,-12.0,-355.08644400000003
248,8.381057768569729,0.1348790896771761,8.78659282188762,-0.27883389042838164,-12.0,-355.08644400000003
249,8.41485235634622,-0.09784014321175472,8.313468593016747,-0.4921175538098392,3.0,88.77161100000001
250,8.44864694412271,-0.34108831567406855,8.854181997440602,-0.694858250953144,-12.0,-355.08644400000003
251,8.482441531899202,-0.5191565103150242,8.381057768569729,-0.9079126112511372,3.0,88.77161100000001
252,8.516236119675693,-0.5320103291598162,8.41485235634622,-1.0896146903721844,3.0,88.77161100000001
253,8.550030707452184,-0.3169914772903439,8.44864694412271,-1.153500671339245,3.0,88.77161100000001
254,8.583825295228674,0.09570966469828233,8.482441531899202,-0.9587844908144085,3.0,88.77161100000001
255,8.617619883005164,0.5740239509876652,8.51623611967569,-0.4395445365046844,3.0,88.77161100000001
256,8.651414470781654,0.9383432964852549,8.550030707452182,0.3114109465382796,3.0,88.77161100000001
257,8.685209058558145,1.053243224573711,8.583825295228673,1.0567929052665987,3.0,88.77161100000001
258,8.719003646334636,0.8993759876467932,8.617619883005164,1.528401113782842,3.0,88.77161100000001
259,8.752798234111127,0.577780536727497,8.651414470781654,1.569855234373934,3.0,88.77161100000001
260,8.786592821887618,0.24323896942417422,8.685209058558145,1.2152634024567617,3.0,88.77161100000001
261,8.820387409664109,0.00902932794158433,8.719003646334636,0.6542285821010797,3.0,88.77161100000001
262,8.8541819974406,-0.11721386956875986,8.752798234111127,0.11110582473342485,3.0,88.77161100000001
263,8.88797658521709,-0.22658510354251912,8.786592821887618,-0.2788338904283691,3.0,88.77161100000001
264,8.921771172993582,-0.4352414090743558,8.820387409664109,-0.5177428253945214,3.0,88.77161100000001
265,8.955565760770073,-0.7892103532334547,9.090744111876036,1.0153304981722473,-4.0,-118.36214800000002
266,8.989360348546564,-1.2059014007928701,9.124538699652527,1.2997630222054681,-4.0,-118.36214800000002
267,9.023154936323055,-1.4913842864970925,9.158333287429018,1.1822678040943941,-4.0,-118.36214800000002
268,9.056949524099545,-1.4331994740815068,9.19212787520551,0.7574246989039823,-4.0,-118.36214800000002
269,9.090744111876036,-0.925041039727574,9.225922462982,0.22418577007740717,-4.0,-118.36214800000002
270,9.124538699652527,-0.051945542102594985,9.496279165193927,-0.5403307605803453,-11.0,-325.49590700000005
271,9.158333287429018,0.9238758177530586,9.530073752970418,0.2510305448964691,-11.0,-325.49590700000005
272,9.19212787520551,1.6798350473954287,9.56386834074691,1.0738981717276153,-11.0,-325.49590700000005
273,9.225922462982,1.987413531986244,9.5976629285234,1.6448181986254606,-11.0,-325.49590700000005
274,9.259717050758491,1.8110449022478627,9.631457516299891,1.7791064595910282,-11.0,-325.49590700000005
275,9.293511638534982,1.2925566744184054,9.665252104076382,1.4848213571223463,-11.0,-325.49590700000005
276,9.327306226311473,0.6365778638689844,9.225922462982,0.22418577007740717,3.0,88.77161100000001
277,9.361100814087964,-0.021346255240703608,9.259717050758491,-0.23844131160248294,3.0,88.77161100000001
278,9.394895401864455,-0.6703252263984351,9.293511638534982,-0.5618289096025263,3.0,88.77161100000001
279,9.428689989640946,-1.3661201211961427,9.56386834074691,1.0738981717276153,-4.0,-118.36214800000002
280,9.462484577417435,-2.107984856912243,9.361100814087962,-0.9914231036551945,3.0,88.77161100000001
281,9.496279165193926,-2.749913133084442,9.394895401864453,-1.1782592634628437,3.0,88.77161100000001
282,9.530073752970416,-3.026726355055845,9.428689989640944,-1.2521960330647959,3.0,88.77161100000001
283,9.563868340746907,-2.698348406914356,9.462484577417435,-1.0668273242073771,3.0,88.77161100000001
284,9.597662928523398,-1.7261269940667452,9.496279165193926,-0.540330760580387,3.0,88.77161100000001
285,9.63145751629989,-0.3537925377799049,9.530073752970416,0.25103054489642584,3.0,88.77161100000001
286,9.66525210407638,0.9837219858748689,9.530073752970416,0.25103054489642584,4.0,118.36214800000002
287,9.699046691852871,1.8797053977977634,9.834225042958835,-0.569500953884246,-4.0,-118.36214800000002
288,9.732841279629362,2.161281779937515,9.868019630735326,-0.8599339051252773,-4.0,-118.36214800000002
289,9.766635867405853,1.9485594788252745,9.901814218511817,-1.1775274616402922,-4.0,-118.36214800000002
290,9.800430455182344,1.542452758119665,9.935608806288307,-1.3748140858937126,-4.0,-118.36214800000002
291,9.834225042958835,1.2301215048608074,9.699046691852871,0.9415400741374856,4.0,118.36214800000002
292,9.868019630735326,1.1340555872848121,9.732841279629362,0.38197081807279615,4.0,118.36214800000002
293,9.901814218511817,1.1824600130191416,10.03699256961778,0.03686830407788438,-4.0,-118.36214800000002
294,9.935608806288307,1.1948749369240432,10.307349271829708,-0.6386357318179521,-11.0,-325.49590700000005
295,9.969403394064798,1.0147155112257218,10.070787157394271,0.852895279086907,-3.0,-88.77161100000001
296,10.00319798184129,0.6078890915550995,10.104581745170762,1.3778563610513224,-3.0,-88.77161100000001
297,10.03699256961778,0.07920791113055178,10.138376332947253,1.4289610025733217,-3.0,-88.77161100000001
298,10.070787157394271,-0.3896565534862552,10.442527622935671,-1.0352636632096595,-11.0,-325.49590700000005
299,10.104581745170762,-0.6373151661960675,10.476322210712162,-0.8454368895641864,-11.0,-325.49590700000005
300,10.138376332947253,-0.6027272325652147,10.510116798488653,-0.3178869781919805,-11.0,-325.49590700000005
301,10.172170920723744,-0.3513048534721007,10.543911386265144,0.45022929828270675,-11.0,-325.49590700000005
302,10.205965508500235,-0.03524702868742729,10.577705974041635,1.2049014260283812,-11.0,-325.49590700000005
303,10.239760096276726,0.1917057972199053,10.611500561818126,1.6633724193774775,-11.0,-325.49590700000005
304,10.273554684053215,0.2539399087603468,10.645295149594615,1.6675146352138857,-11.0,-325.49590700000005
305,10.307349271829706,0.17455907738002266,10.679089737371106,1.2632401109434335,-11.0,-325.49590700000005
306,10.341143859606197,0.02516825651118363,10.712884325147597,0.6572669913061271,-11.0,-325.49590700000005
307,10.374938447382688,-0.15065889141139335,11.25359772957145,-0.013437022815660584,-26.0,-769.3539620000001
308,10.408733035159178,-0.3756941425343809,11.28739231734794,-0.3663270649836873,-26.0,-769.3539620000001
309,10.44252762293567,-0.7081882340021319,11.321186905124431,-0.6293240696826465,-26.0,-769.3539620000001
310,10.47632221071216,-1.1668341467379821,11.354981492900922,-0.893804173505471,-26.0,-769.3539620000001
311,10.510116798488651,-1.6710171316742901,11.388776080677413,-1.1849253854334274,-26.0,-769.3539620000001
312,10.543911386265142,-2.0481302821834437,11.422570668453904,-1.4043529546077247,-26.0,-769.3539620000001
313,10.577705974041633,-2.1155790587426075,11.456365256230395,-1.3745762928436962,-26.0,-769.3539620000001
314,10.611500561818124,-1.78946493980823,11.490159844006886,-0.9610620214487128,-26.0,-769.3539620000001
315,10.645295149594615,-1.1448826277545083,11.523954431783377,-0.19024963494318428,-26.0,-769.3539620000001
316,10.679089737371106,-0.3820100438790699,11.557749019559868,0.7227421312406119,-26.0,-769.3539620000001
317,10.712884325147597,0.2818594473451197,11.591543607336359,1.4658218847913222,-26.0,-769.3539620000001
318,10.746678912924088,0.7242917006428604,11.62533819511285,1.7886986790523138,-26.0,-769.3539620000001
319,10.780473500700579,0.9641056938786986,11.65913278288934,1.6283526206245067,-26.0,-769.3539620000001
320,10.81426808847707,1.1163923719332318,10.881857264030051,-0.9751983521563752,-2.0,-59.18107400000001
321,10.84806267625356,1.2872919200330397,10.679089737371106,1.2632401109434335,5.0,147.95268500000003
322,10.881857264030051,1.478554955704391,10.949446439583033,-1.229876632376456,-2.0,-59.18107400000001
323,10.915651851806542,1.5704875080856395,10.983241027359524,-0.9795885711986501,-2.0,-59.18107400000001
324,10.949446439583033,1.4046071713920567,11.017035615136015,-0.39457238833679037,-2.0,-59.18107400000001
325,10.983241027359524,0.9172354739198834,11.050830202912506,0.38370783933345554,-2.0,-59.18107400000001
326,11.017035615136015,0.23040682386302602,11.084624790688997,1.0899570451871892,-2.0,-59.18107400000001
327,11.050830202912506,-0.3748176369973349,11.118419378465488,1.4708726565251147,-2.0,-59.18107400000001
328,11.084624790688995,-0.6016726120425867,11.152213966241977,1.419018678347684,-2.0,-59.18107400000001
329,11.118419378465486,-0.3129284882395233,11.186008554018468,1.018323701542335,-2.0,-59.18107400000001
330,11.152213966241977,0.37699231911414566,11.219803141794959,0.4752553890908846,-2.0,-59.18107400000001
331,11.186008554018468,1.1554563567520684,11.25359772957145,-0.013437022815660584,-2.0,-59.18107400000001
332,11.219803141794959,1.6739393304521575,11.28739231734794,-0.3663270649836873,-2.0,-59.18107400000001
333,11.25359772957145,1.7151078859790339,11.321186905124431,-0.6293240696826465,-2.0,-59.18107400000001
334,11.28739231734794,1.2710573608358877,11.354981492900922,-0.893804173505471,-2.0,-59.18107400000001
335,11.321186905124431,0.5062383847360001,11.388776080677413,-1.1849253854334274,-2.0,-59.18107400000001
336,11.354981492900922,-0.3513266581089788,11.422570668453904,-1.4043529546077247,-2.0,-59.18107400000001
337,11.388776080677413,-1.115247586741411,11.456365256230395,-1.3745762928436962,-2.0,-59.18107400000001
338,11.422570668453904,-1.6867101652712264,11.490159844006886,-0.9610620214487128,-2.0,-59.18107400000001
339,11.456365256230395,-2.0373186850448555,11.523954431783377,-0.19024963494318428,-2.0,-59.18107400000001
340,11.490159844006886,-2.167653318702978,11.557749019559868,0.7227421312406119,-2.0,-59.18107400000001
341,11.523954431783377,-2.0839442960919734,11.557749019559868,0.7227421312406119,-1.0,-29.590537000000005
342,11.557749019559868,-1.8070611358207582,11.591543607336359,1.4658218847913222,-1.0,-29.590537000000005
343,11.591543607336359,-1.3966369218756545,11.62533819511285,1.7886986790523138,-1.0,-29.590537000000005
344,11.62533819511285,-0.958507975668114,11.65913278288934,1.6283526206245067,-1.0,-29.590537000000005
345,11.65913278288934,-0.6118538887946369,11.692927370665831,1.1224137248885786,-1.0,-29.590537000000005
346,11.692927370665831,-0.42228011409437655,11.726721958442322,0.507662941665595,-1.0,-29.590537000000005
347,11.726721958442322,-0.3436162524507546,11.760516546218813,-0.023734064410041056,-1.0,-29.590537000000005
348,11.760516546218813,-0.22274834854541095,11.794311133995304,-0.414671819994101,-1.0,-29.590537000000005
349,11.794311133995304,0.11469139651741034,11.828105721771795,-0.7263724888775964,-1.0,-29.590537000000005
350,11.828105721771795,0.744281386099464,11.861900309548286,-1.036155424140549,-1.0,-29.590537000000005
351,11.861900309548286,1.570176463627042,11.895694897324777,-1.3300573498183,-1.0,-29.590537000000005
352,11.895694897324775,2.351591249507753,11.929489485101266,-1.473922588998014,-1.0,-29.590537000000005
353,11.929489485101266,2.810933159247244,11.963284072877757,-1.291459557319587,-1.0,-29.590537000000005
354,11.963284072877757,2.757449157998171,11.997078660654248,-0.6999252257603436,-1.0,-29.590537000000005
355,11.997078660654248,2.164121578481811,12.030873248430739,0.19288731417857433,-1.0,-29.590537000000005
356,12.030873248430739,1.1744718682445927,12.06466783620723,1.1067606681307183,-1.0,-29.590537000000005
357,12.06466783620723,0.051042632536787064,12.09846242398372,1.7217114742257367,-1.0,-29.590537000000005
358,12.09846242398372,-0.911047425085174,12.132257011760212,1.8441426368106104,-1.0,-29.590537000000005
359,12.132257011760212,-1.4812919212897955,12.166051599536702,1.5004686429225806,-1.0,-29.590537000000005
360,12.166051599536702,-1.570299908506274,12.199846187313193,0.9010158175951195,-1.0,-29.590537000000005
361,12.199846187313193,-1.251127545293161,12.233640775089684,0.30307418781677065,-1.0,-29.590537000000005
362,12.233640775089684,-0.7133834587421917,12.774354179513537,-0.29910526702912654,-16.0,-473.4485920000001
363,12.267435362866175,-0.1757535327465504,12.808148767290028,-0.5931401651894901,-16.0,-473.4485920000001
364,12.301229950642666,0.19796029822500538,12.841943355066519,-0.8124420310682126,-16.0,-473.4485920000001
365,12.335024538419157,0.3446274951878005,12.87573794284301,-1.0636549252034562,-16.0,-473.4485920000001
366,12.368819126195648,0.2982599786510915,12.9095325306195,-1.3396084327096156,-16.0,-473.4485920000001
367,12.402613713972139,0.14762871621763596,12.943327118395992,-1.4934794766491735,-16.0,-473.4485920000001
368,12.43640830174863,-0.019087256913650326,12.977121706172483,-1.3255216730484718,-16.0,-473.4485920000001
369,12.47020288952512,-0.1536698578146625,13.010916293948974,-0.7290635308238302,-16.0,-473.4485920000001
370,12.503997477301612,-0.2555233010533554,13.044710881725464,0.2024561723593395,-16.0,-473.4485920000001
371,12.537792065078103,-0.35137041333077285,13.078505469501955,1.186350682648253,-16.0,-473.4485920000001
372,12.571586652854593,-0.4632590539302761,13.112300057278446,1.8830122562121656,-16.0,-473.4485920000001
373,12.605381240631084,-0.5838151106628134,13.146094645054937,2.070936537484217,-16.0,-473.4485920000001
374,12.639175828407575,-0.6712658906929883,13.179889232831428,1.7547722548149445,-16.0,-473.4485920000001
375,12.672970416184066,-0.6635370080131526,13.213683820607919,1.1406065949074724,-16.0,-473.4485920000001
376,12.706765003960557,-0.5012917699125657,13.24747840838441,0.50008748693795,-16.0,-473.4485920000001
377,12.740559591737046,-0.1524909333480653,13.281272996160899,0.014530436787488332,-16.0,-473.4485920000001
378,12.774354179513537,0.36298390534069197,13.31506758393739,-0.3031123277771182,-16.0,-473.4485920000001
379,12.808148767290028,0.9545302182428018,13.348862171713881,-0.5662399558829887,-16.0,-473.4485920000001
380,12.841943355066519,1.46405005589525,13.382656759490372,-0.8891373184289506,-16.0,-473.4485920000001
381,12.87573794284301,1.7053437287196036,13.416451347266863,-1.2670006110741685,-16.0,-473.4485920000001
382,12.9095325306195,1.5335812190606766,13.450245935043354,-1.5457784104590746,-16.0,-473.4485920000001
383,12.943327118395992,0.9164175811149003,12.774354179513537,-0.29910526702912654,5.0,147.95268500000003
384,12.977121706172483,-0.027972183056424897,12.503997477301612,-0.9430979920968073,14.0,414.26751800000005
385,13.010916293948974,-1.0493075626199333,12.537792065078103,-0.05238771769842965,14.0,414.26751800000005
386,13.044710881725464,-1.842984318861716,12.571586652854593,0.9013127259677753,14.0,414.26751800000005
387,13.078505469501955,-2.165386103501385,12.605381240631084,1.5758425289537488,14.0,414.26751800000005
388,13.112300057278446,-1.9397625796216087,12.639175828407575,1.7492105313688242,14.0,414.26751800000005
389,13.146094645054937,-1.2954421567272842,12.672970416184066,1.4258790152393197,14.0,414.26751800000005
390,13.179889232831428,-0.5084222072573636,12.706765003960557,0.810884631015347,14.0,414.26751800000005
391,13.213683820607919,0.1317080912502339,13.24747840838441,0.50008748693795,-1.0,-29.590537000000005
392,13.24747840838441,0.456596027743308,13.2812729961609,0.01453043678746278,-1.0,-29.590537000000005
393,13.2812729961609,0.48593491099768465,13.315067583937392,-0.3031123277771349,-1.0,-29.590537000000005
394,13.315067583937392,0.39925756800011625,13.348862171713883,-0.5662399558830026,-1.0,-29.590537000000005
395,13.348862171713883,0.43075969307381073,13.382656759490374,-0.8891373184289675,-1.0,-29.590537000000005
396,13.382656759490374,0.7332339369314588,13.416451347266865,-1.2670006110741885,-1.0,-29.590537000000005
397,13.416451347266865,1.2722282143759833,13.450245935043355,-1.5457784104590893,-1.0,-29.590537000000005
398,13.450245935043355,1.809934879850008,13.484040522819846,-1.5079372053062048,-1.0,-29.590537000000005
399,13.484040522819846,2.0055923525664903,14.0247539272437,-1.0872770086023285,-16.0,-473.4485920000001
400,13.517835110596337,1.598250561184063,14.05854851502019,-0.1847453991136984,-16.0,-473.4485920000001
401,13.551629698372826,0.5804461316936299,13.585424286149317,0.7925064244717828,-1.0,-29.590537000000005
402,13.585424286149317,-0.7429689941807976,13.619218873925808,1.4999187742394067,-1.0,-29.590537000000005
403,13.619218873925808,-1.867760574551964,13.619218873925808,1.4999187742394067,0.0,0.0
404,13.6530134617023,-2.3344761294467853,13.6530134617023,1.7174048600828142,0.0,0.0
405,13.68680804947879,-1.9714267653967044,13.68680804947879,1.4312078287534389,0.0,0.0
406,13.720602637255281,-0.9884842431940684,13.720602637255281,0.8382280942616753,0.0,0.0
407,13.754397225031772,0.13964538772834145,13.754397225031772,0.21210188415886777,0.0,0.0
408,13.788191812808263,0.930120642403239,13.788191812808263,-0.25739176778679135,0.0,0.0
409,13.821986400584754,1.1345473737936755,13.821986400584754,-0.5495707666581465,0.0,0.0
410,13.855780988361245,0.8292332438229084,13.855780988361245,-0.7761161462194304,0.0,0.0
411,13.889575576137736,0.3134332620950825,13.889575576137736,-1.0566814627444665,0.0,0.0
412,13.923370163914226,-0.10488034088465373,13.923370163914226,-1.395814600798114,0.0,0.0
413,13.957164751690717,-0.2910594882767378,13.957164751690717,-1.646934419744521,0.0,0.0
414,13.990959339467208,-0.32105773557721573,13.990959339467208,-1.591757257797786,0.0,0.0
415,14.0247539272437,-0.365682107127202,14.0247539272437,-1.0872770086023285,0.0,0.0
416,14.05854851502019,-0.5161405816784629,14.092343102796681,0.8613865773956433,-1.0,-29.590537000000005
417,14.092343102796681,-0.6818263404477767,14.092343102796681,0.8613865773956433,0.0,0.0
418,14.126137690573172,-0.641783919982151,14.126137690573172,1.7075600502442088,0.0,0.0
419,14.159932278349663,-0.22163005089380122,14.193726866126154,1.95396026164222,-1.0,-29.590537000000005
420,14.193726866126154,0.5340526947853711,14.227521453902645,1.444379077773356,-1.0,-29.590537000000005
421,14.227521453902645,1.3356105283210218,15.275153674973861,0.5674933821409908,-31.0,-917.3066470000001
422,14.261316041679136,1.8053015550562692,15.613099552738769,0.8977698018877865,-40.0,-1183.6214800000002
423,14.295110629455626,1.7089212070271949,15.64689414051526,1.5989595055845869,-40.0,-1183.6214800000002
424,14.328905217232117,1.0936773695733435,15.68068872829175,1.8678395206990803,-40.0,-1183.6214800000002
425,14.362699805008607,0.2412224637622671,15.71448331606824,1.6686660152525876,-40.0,-1183.6214800000002
426,14.396494392785097,-0.5142571514376092,15.74827790384473,1.1449006313222012,-40.0,-1183.6214800000002
427,14.430288980561588,-0.9675502155523538,15.782072491621221,0.5102186250602114,-40.0,-1183.6214800000002
428,14.46408356833808,-1.1128284688218617,15.815867079397712,-0.07801334534376969,-40.0,-1183.6214800000002
429,14.49787815611457,-1.0866708441414992,15.849661667174203,-0.5788821634579208,-40.0,-1183.6214800000002
430,14.531672743891061,-1.0489282144795493,15.883456254950694,-1.030657107241967,-40.0,-1183.6214800000002
431,14.565467331667552,-1.083896897351951,15.917250842727185,-1.4546617958664856,-40.0,-1183.6214800000002
432,14.599261919444043,-1.1680152750199533,15.951045430503676,-1.778929242948922,-40.0,-1183.6214800000002
433,14.633056507220534,-1.2028627626415953,15.984840018280167,-1.8456250884006016,-40.0,-1183.6214800000002
434,14.666851094997025,-1.0826307689326455,16.018634606056658,-1.5064099731536105,-40.0,-1183.6214800000002
435,14.700645682773516,-0.7574176164264836,16.255196720492094,0.9140247399343472,-46.0,-1361.1647020000003
436,14.734440270550007,-0.26150463111572053,16.288991308268585,0.3151367655839707,-46.0,-1361.1647020000003
437,14.768234858326498,0.30492274010290443,16.322785896045076,-0.1609763042679118,-46.0,-1361.1647020000003
438,14.802029446102988,0.8262654196596737,16.356580483821567,-0.5287263265636424,-46.0,-1361.1647020000003
439,14.83582403387948,1.2211259683487294,16.390375071598058,-0.8689840984868523,-46.0,-1361.1647020000003
440,14.86961862165597,1.4622027040093915,16.42416965937455,-1.2163447724897747,-46.0,-1361.1647020000003
441,14.903413209432461,1.5622944522657312,14.937207797208952,-1.5094959557659884,-1.0,-29.590537000000005
442,14.937207797208952,1.5445089908375174,14.971002384985443,-1.7929948424320168,-1.0,-29.590537000000005
443,14.971002384985443,1.4188490144574966,15.004796972761934,-1.7438082304771068,-1.0,-29.590537000000005
444,15.004796972761934,1.179268187807176,15.038591560538425,-1.2241162548110782,-1.0,-29.590537000000005
445,15.038591560538425,0.8236317581242564,15.072386148314916,-0.2986214869090909,-1.0,-29.590537000000005
446,15.072386148314916,0.38346823788770396,16.08622378160964,0.26791786522262323,-30.0,-887.7161100000002
447,15.106180736091407,-0.06295156392001237,16.12001836938613,1.2190079401214717,-30.0,-887.7161100000002
448,15.139975323867898,-0.4156292620024649,16.15381295716262,1.8065668957098286,-30.0,-887.7161100000002
449,15.173769911644387,-0.609385790713533,16.187607544939112,1.882753302984083,-30.0,-887.7161100000002
450,15.207564499420878,-0.6633463414963022,15.545510377185787,-0.8134313063861245,-10.0,-295.90537000000006
451,15.241359087197369,-0.6774331293661648,15.579304964962278,-0.009941589486056881,-10.0,-295.90537000000006
452,15.27515367497386,-0.7624705710190957,15.613099552738769,0.8977698018877865,-10.0,-295.90537000000006
453,15.30894826275035,-0.9455307431623845,16.322785896045076,-0.1609763042679118,-30.0,-887.7161100000002
454,15.342742850526841,-1.1243027868114255,16.356580483821567,-0.5287263265636424,-30.0,-887.7161100000002
455,15.376537438303332,-1.1186621870385882,16.390375071598058,-0.8689840984868523,-30.0,-887.7161100000002
456,15.410332026079823,-0.7962926861049259,16.42416965937455,-1.2163447724897747,-30.0,-887.7161100000002
457,15.444126613856314,-0.18565618009924412,15.30894826275035,0.04470081150188431,4.0,118.36214800000002
458,15.477921201632805,0.5111051680113323,15.342742850526841,-0.30462787004114716,4.0,118.36214800000002
459,15.511715789409296,1.021546112921241,15.849661667174205,-0.5788821634579471,-10.0,-295.90537000000006
460,15.545510377185787,1.1516116183972813,15.883456254950696,-1.0306571072419908,-10.0,-295.90537000000006
461,15.579304964962278,0.8796807669516694,15.917250842727187,-1.4546617958665078,-10.0,-295.90537000000006
462,15.613099552738769,0.34325082572450966,15.951045430503678,-1.7789292429489392,-10.0,-295.90537000000006
463,15.64689414051526,-0.2576817265874191,15.984840018280169,-1.8456250884006051,-10.0,-295.90537000000006
464,15.68068872829175,-0.7665407115237785,16.018634606056658,-1.5064099731536105,-10.0,-295.90537000000006
465,15.714483316068241,-1.1161517640264627,16.08622378160964,0.26791786522262323,-11.0,-325.49590700000005
466,15.748277903844732,-1.299483166003581,16.12001836938613,1.2190079401214717,-11.0,-325.49590700000005
467,15.782072491621223,-1.3123270603817887,15.68068872829175,1.8678395206990803,3.0,88.77161100000001
468,15.815867079397714,-1.1311869806265005,15.714483316068241,1.6686660152525772,3.0,88.77161100000001
469,15.849661667174205,-0.7448548763486899,15.714483316068241,1.6686660152525772,4.0,118.36214800000002
470,15.883456254950696,-0.2018550258114961,15.748277903844732,1.1449006313221737,4.0,118.36214800000002
471,15.917250842727187,0.3751614885461892,15.782072491621223,0.5102186250601781,4.0,118.36214800000002
472,15.951045430503678,0.8241156634390675,15.815867079397714,-0.07801334534380053,4.0,118.36214800000002
473,15.984840018280169,1.0096144521597832,14.159932278349663,2.091288633505499,54.0,1597.8889980000004
474,16.018634606056658,0.8913616889838338,14.193726866126152,1.9539602616422274,54.0,1597.8889980000004
475,16.05242919383315,0.5650222262787757,14.227521453902643,1.444379077773383,54.0,1597.8889980000004
476,16.08622378160964,0.24554918091776365,14.261316041679134,0.8084864281767897,54.0,1597.8889980000004
477,16.12001836938613,0.1772716822091971,14.295110629455625,0.24158533688209993,54.0,1597.8889980000004
478,16.15381295716262,0.49798992704086475,14.328905217232116,-0.2017763829914808,54.0,1597.8889980000004
479,16.187607544939112,1.1336969053866097,14.362699805008607,-0.5880747441016493,54.0,1597.8889980000004
480,16.221402132715603,1.805302022089991,14.396494392785097,-0.9979123975643169,54.0,1597.8889980000004
481,16.255196720492094,2.1649409891463893,14.430288980561588,-1.4129226787512517,54.0,1597.8889980000004
482,16.288991308268585,1.9872790262744182,14.46408356833808,-1.6820623869601934,54.0,1597.8889980000004
483,16.322785896045076,1.2942492046255478,14.49787815611457,-1.5997879153070818,54.0,1597.8889980000004
484,16.356580483821567,0.3320001001291703,14.531672743891061,-1.050257868968651,54.0,1597.8889980000004
485,16.390375071598058,-0.5792933485493262,14.565467331667552,-0.11985113751145055,54.0,1597.8889980000004
486,16.42416965937455,-1.2155964370615011,14.599261919444043,0.9062721981920121,54.0,1597.8889980000004
487,16.45796424715104,-1.529468317809545,14.86961862165597,-0.7619477053114856,47.0,1390.7552390000003
488,16.49175883492753,-1.6106164777664893,14.903413209432461,-1.1142943387545459,47.0,1390.7552390000003
489,16.52555342270402,-1.5835831648580936,14.937207797208952,-1.5094959557659884,47.0,1390.7552390000003
490,16.559348010480512,-1.523003053242761,14.971002384985443,-1.7929948424320168,47.0,1390.7552390000003
491,16.593142598257003,-1.4278275354570298,15.004796972761934,-1.7438082304771068,47.0,1390.7552390000003
492,16.626937186033494,-1.2481946902798322,15.038591560538425,-1.2241162548110782,47.0,1390.7552390000003
493,16.660731773809985,-0.9365117382057953,15.072386148314916,-0.2986214869090909,47.0,1390.7552390000003
494,16.694526361586476,-0.49280354878059496,15.376537438303334,-0.5606441615907446,39.0,1154.0309430000002
495,16.728320949362967,0.017941539070064034,15.410332026079825,-0.8304059124468606,39.0,1154.0309430000002
496,16.762115537139458,0.48500186519071536,15.444126613856316,-1.1296939172954428,39.0,1154.0309430000002
497,16.79591012491595,0.7986153303426665,15.477921201632807,-1.3401361054018077,39.0,1154.0309430000002
498,16.82970471269244,0.8981614080745112,15.511715789409298,-1.2751070308993335,39.0,1154.0309430000002
499,16.86349930046893,0.7927917117301702,15.545510377185789,-0.8134313063860823,39.0,1154.0309430000002
500,16.89729388824542,0.5460816153193558,15.545510377185789,-0.8134313063860823,40.0,1183.6214800000002
501,16.931088476021912,0.24326322598809072,15.57930496496228,-0.00994158948600917,40.0,1183.6214800000002
502,16.964883063798403,-0.03531450776279914,15.849661667174205,-0.5788821634579471,33.0,976.4877210000002
503,16.998677651574894,-0.2271555268542599,15.883456254950696,-1.0306571072419908,33.0,976.4877210000002
504,17.032472239351385,-0.2938988197873124,15.917250842727187,-1.4546617958665078,33.0,976.4877210000002
505,17.066266827127876,-0.2277097061493707,15.951045430503678,-1.7789292429489392,33.0,976.4877210000002
506,17.100061414904367,-0.056254059537752234,15.984840018280169,-1.8456250884006051,33.0,976.4877210000002
507,17.133856002680858,0.1613980087256214,16.01863460605666,-1.5064099731535303,33.0,976.4877210000002
508,17.16765059045735,0.35354112566094986,16.052429193833152,-0.7440110510150141,33.0,976.4877210000002
509,17.20144517823384,0.46448449000789893,16.559348010480512,-0.4256380822768953,19.0,562.2202030000001
510,17.235239766010327,0.4759213869205181,16.593142598257,0.4997403416389489,19.0,562.2202030000001
511,17.269034353786818,0.40310513774684065,16.62693718603349,1.3061732243999753,19.0,562.2202030000001
512,17.30282894156331,0.2675794242729377,16.66073177380998,1.7274702980717018,19.0,562.2202030000001
513,17.3366235293398,0.07288245748677531,16.694526361586473,1.6704498330608888,19.0,562.2202030000001
514,17.37041811711629,-0.18988827914170167,16.728320949362963,1.2437364936706672,19.0,562.2202030000001
515,17.40421270489278,-0.5086383271120422,16.762115537139454,0.6704329132882696,19.0,562.2202030000001
516,17.438007292669273,-0.8204635493335269,16.795910124915945,0.1489587660165942,19.0,562.2202030000001
517,17.471801880445764,-1.0181677389557837,16.829704712692436,-0.24467120836365133,19.0,562.2202030000001
518,17.505596468222254,-0.9987643559574558,16.863499300468927,-0.554695266075276,19.0,562.2202030000001
519,17.539391055998745,-0.7265114263815733,16.897293888245418,-0.8564470629157959,19.0,562.2202030000001
520,17.573185643775236,-0.26622990317340256,16.93108847602191,-1.1522170031942907,19.0,562.2202030000001
521,17.606980231551727,0.2445911196170802,16.9648830637984,-1.3328408750602507,19.0,562.2202030000001
522,17.640774819328218,0.6744022828114326,16.99867765157489,-1.2385619236463543,19.0,562.2202030000001
523,17.67456940710471,0.9711862169944986,17.505596468222254,-1.0186569187060994,5.0,147.95268500000003
524,17.7083639948812,1.1704749936549887,17.539391055998745,-0.46466873359299965,5.0,147.95268500000003
525,17.74215858265769,1.3288132027781678,17.573185643775236,0.3470518261121864,5.0,147.95268500000003
526,17.77595317043418,1.4407007049829745,17.606980231551727,1.1509175205566264,5.0,147.95268500000003
527,17.809747758210673,1.416910824512783,17.640774819328218,1.655448154651605,5.0,147.95268500000003
528,17.843542345987164,1.1524950126817213,17.67456940710471,1.6953137821550024,5.0,147.95268500000003
529,17.877336933763655,0.6336426153078325,17.7083639948812,1.3101295858053417,5.0,147.95268500000003
530,17.911131521540145,-0.00863818557971534,17.74215858265769,0.7030429672872803,5.0,147.95268500000003
531,17.944926109316636,-0.5554567063277579,17.77595317043418,0.11166728157355567,5.0,147.95268500000003
532,17.978720697093127,-0.837794353433746,17.809747758210673,-0.321853475766516,5.0,147.95268500000003
533,18.012515284869618,-0.8535303541330711,17.843542345987164,-0.6005143762655966,5.0,147.95268500000003
534,18.04630987264611,-0.7681628947766023,16.05242919383315,-0.7440110510151204,59.0,1745.8416830000003
535,18.0801044604226,-0.7898467450583739,17.877336933763655,-0.8184929541554989,6.0,177.54322200000001
536,18.11389904819909,-1.0089855057134889,17.911131521540145,-1.04973226790228,6.0,177.54322200000001
537,18.147693635975582,-1.3235107666380759,17.944926109316636,-1.2616066893198659,6.0,177.54322200000001
538,18.181488223752073,-1.5063283147629845,17.978720697093127,-1.317242716386763,6.0,177.54322200000001
539,18.215282811528564,-1.3637589154580743,18.012515284869618,-1.0685335300338947,6.0,177.54322200000001
540,18.249077399305055,-0.8700399378130407,18.04630987264611,-0.47756053508649743,6.0,177.54322200000001
541,18.282871987081545,-0.1880737363747866,18.0801044604226,0.3198633648695247,6.0,177.54322200000001
542,18.316666574858036,0.42888977762127634,18.0801044604226,0.3198633648695247,7.0,207.13375900000003
543,18.350461162634527,0.7828259126614314,18.11389904819909,1.0595662943394022,7.0,207.13375900000003
544,18.38425575041102,0.8300458824985232,18.147693635975582,1.4810302818632466,7.0,207.13375900000003
545,18.41805033818751,0.6781727628044824,18.181488223752073,1.463117969170321,7.0,207.13375900000003
546,18.451844925964,0.49356332304815725,18.75599621595242,0.42281177441310724,-9.0,-266.314833
547,18.48563951374049,0.3863991371973232,16.964883063798403,-1.3328408750602698,45.0,1331.5741650000002
548,18.519434101516982,0.34830191218223516,18.78979080372891,-0.04995111579544613,-8.0,-236.72429600000004
549,18.553228689293473,0.2772246046917859,18.8235853915054,-0.36681330515938965,-8.0,-236.72429600000004
550,18.587023277069964,0.06769113685673217,18.85737997928189,-0.5961009994060675,-8.0,-236.72429600000004
551,18.620817864846455,-0.29312780549213685,17.100061414904367,0.7544875034177969,45.0,1331.5741650000002
552,18.654612452622946,-0.6853499347397365,17.133856002680858,1.3052056271666703,45.0,1331.5741650000002
553,18.688407040399436,-0.9038005212060478,17.404212704892785,-0.8609380517571693,38.0,1124.4404060000002
554,18.722201628175927,-0.7733466771904823,17.438007292669276,-1.0946227718166759,38.0,1124.4404060000002
555,18.75599621595242,-0.26499360653306536,17.471801880445767,-1.204522151881692,38.0,1124.4404060000002
556,18.78979080372891,0.46499326486838616,17.505596468222258,-1.0186569187060412,38.0,1124.4404060000002
557,18.8235853915054,1.1468096944300388,17.53939105599875,-0.46466873359291433,38.0,1124.4404060000002
558,18.85737997928189,1.538336906689479,17.57318564377524,0.34705182611227087,38.0,1124.4404060000002
559,18.89117456705838,1.5437618536413593,17.606980231551727,1.1509175205566264,38.0,1124.4404060000002
560,18.92496915483487,1.235713066092875,17.877336933763655,-0.8184929541554989,31.0,917.3066470000001
561,18.95876374261136,0.7808980558378089,17.911131521540145,-1.04973226790228,31.0,917.3066470000001
562,18.99255833038785,0.3343923052305112,17.944926109316636,-1.2616066893198659,31.0,917.3066470000001
563,19.026352918164342,-0.026369460150118672,17.978720697093127,-1.317242716386763,31.0,917.3066470000001
564,19.060147505940833,-0.3010495147197854,18.012515284869618,-1.0685335300338947,31.0,917.3066470000001
565,19.093942093717324,-0.5213606759641988,18.04630987264611,-0.47756053508649743,31.0,917.3066470000001
566,19.127736681493815,-0.703947159155337,18.0801044604226,0.3198633648695247,31.0,917.3066470000001
567,19.161531269270306,-0.8320039525946997,18.62081786484645,1.3779981194469686,16.0,473.4485920000001
568,19.195325857046797,-0.8695845215552482,18.654612452622942,1.6543248895347906,16.0,473.4485920000001
569,19.229120444823288,-0.7912242610202853,18.688407040399433,1.4832676377538976,16.0,473.4485920000001
570,19.26291503259978,-0.604427235311903,18.722201628175924,0.9965011211187778,16.0,473.4485920000001
571,19.29670962037627,-0.35125175757587435,18.755996215952415,0.42281177441316764,16.0,473.4485920000001
572,19.33050420815276,-0.08904913828013765,18.789790803728906,-0.04995111579539646,16.0,473.4485920000001
573,19.36429879592925,0.1376406308834938,18.823585391505397,-0.36681330515935634,16.0,473.4485920000001
574,19.398093383705742,0.3154896699505803,18.857379979281887,-0.5961009994060434,16.0,473.4485920000001
575,19.431887971482233,0.4559835130174064,18.89117456705838,-0.8334113236119708,16.0,473.4485920000001
576,19.465682559258724,0.5655678968032708,18.92496915483487,-1.0921979337888994,16.0,473.4485920000001
577,19.499477147035215,0.6136981153637954,18.95876374261136,-1.2624109240596537,16.0,473.4485920000001
578,19.533271734811706,0.526631470569651,18.99255833038785,-1.1719917814902534,16.0,473.4485920000001
579,19.567066322588197,0.22169489357840036,19.026352918164342,-0.7138589070703724,16.0,473.4485920000001
580,19.600860910364688,-0.3285142792181331,19.060147505940833,0.04905966021024283,16.0,473.4485920000001
581,19.63465549814118,-1.0386920028859938,19.093942093717324,0.8796990098192746,16.0,473.4485920000001
582,19.66845008591767,-1.7066604447575686,19.127736681493815,1.476980549322582,16.0,473.4485920000001
583,19.70224467369416,-2.083814227200503,19.161531269270306,1.6343196428658944,16.0,473.4485920000001
584,19.73603926147065,-1.989006615228976,19.70224467369416,1.5115900181889965,1.0,29.590537000000005
585,19.769833849247142,-1.397388612650598,19.73603926147065,0.959351025138276,1.0,29.590537000000005
586,19.803628437023633,-0.45096751449670414,19.769833849247142,0.37922280641638423,1.0,29.590537000000005
587,19.837423024800124,0.6063603734258145,19.803628437023633,-0.054919850221751686,1.0,29.590537000000005
588,19.871217612576615,1.5216016873427527,19.837423024800124,-0.3285365406768702,1.0,29.590537000000005
589,19.905012200353106,2.107738231888935,19.871217612576615,-0.5472425551777746,1.0,29.590537000000005
590,19.938806788129597,2.286700883675611,19.905012200353106,-0.8181561669857185,1.0,29.590537000000005
591,19.972601375906088,2.1023825226862844,19.938806788129597,-1.1364692435416197,1.0,29.590537000000005
592,20.00639596368258,1.6976964018034053,19.972601375906088,-1.357123733110572,1.0,29.590537000000005
593,20.04019055145907,1.2484341306022972,20.00639596368258,-1.2762677332542602,1.0,29.590537000000005
594,20.07398513923556,0.8734465089394406,20.04019055145907,-0.7743099844468729,1.0,29.590537000000005
595,20.10777972701205,0.5722541266995951,20.07398513923556,0.073332483822957,1.0,29.590537000000005
596,20.141574314788542,0.23812081984298514,20.10777972701205,0.9980737810661902,1.0,29.590537000000005
597,20.175368902565033,-0.25164566601080185,20.37813642922398,-0.7820397383051367,-6.0,-177.54322200000001
598,20.209163490341524,-0.92354005172551,20.648493131435906,1.490823005109709,-13.0,-384.67698100000007
599,20.242958078118015,-1.6516850880769394,20.682287719212397,1.6813391862349107,-13.0,-384.67698100000007
600,20.276752665894506,-2.2011977822413065,20.209163490341524,1.5130592448185003,2.0,59.18107400000001
601,20.310547253670997,-2.3466376875577093,20.242958078118015,0.8878852612253296,2.0,59.18107400000001
602,20.344341841447488,-1.9916385837671524,20.276752665894506,0.23460625143869923,2.0,59.18107400000001
603,20.37813642922398,-1.220485346059395,20.310547253670997,-0.2565813551628479,2.0,59.18107400000001
604,20.41193101700047,-0.2605937986001357,20.344341841447488,-0.5609269385157966,2.0,59.18107400000001
605,20.44572560477696,0.6140144723309762,20.37813642922398,-0.7820397383051367,2.0,59.18107400000001
606,20.47952019255345,1.1865777325842142,20.44572560477696,-1.3089576928208537,1.0,29.590537000000005
607,20.51331478032994,1.3669280583162469,20.479520192553448,-1.4827274426726218,1.0,29.590537000000005
608,20.54710936810643,1.2058882926303705,20.51331478032994,-1.364222306972044,1.0,29.590537000000005
609,20.58090395588292,0.8539700935428949,20.54710936810643,-0.8509187074428117,1.0,29.590537000000005
610,20.61469854365941,0.48333960460665526,20.58090395588292,-0.025429010395301814,1.0,29.590537000000005
611,20.648493131435902,0.20989913962993317,20.61469854365941,0.8567278608491652,1.0,29.590537000000005
612,20.682287719212393,0.053928225926708505,20.648493131435902,1.4908230051096891,1.0,29.590537000000005
613,20.716082306988884,-0.043888272688545935,20.682287719212393,1.6813391862349367,1.0,29.590537000000005
614,20.749876894765375,-0.16507949163378227,20.716082306988884,1.4341593036604872,1.0,29.590537000000005
615,20.783671482541866,-0.34870998492518535,20.749876894765375,0.9272032396446507,1.0,29.590537000000005
616,20.817466070318357,-0.5545728450095964,20.783671482541866,0.3863563759569655,1.0,29.590537000000005
617,20.851260658094848,-0.6749602441894145,20.817466070318357,-0.04633946275422542,1.0,29.590537000000005
618,20.88505524587134,-0.5915931486418493,20.851260658094848,-0.366686011151128,1.0,29.590537000000005
619,20.91884983364783,-0.24911697030431817,20.88505524587134,-0.6568379241530531,1.0,29.590537000000005
620,20.95264442142432,0.2956656063275053,20.91884983364783,-0.9736407114961404,1.0,29.590537000000005
621,20.98643900920081,0.8783947895991951,20.95264442142432,-1.2622642825459223,1.0,29.590537000000005
622,21.020233596977302,1.2861272546897558,20.749876894765375,0.9272032396446507,8.0,236.72429600000004
623,21.054028184753793,1.3436025261237738,21.020233596977302,-1.1106032194414575,1.0,29.590537000000005
624,21.087822772530284,0.9881520342412734,21.054028184753793,-0.4694780869315852,1.0,29.590537000000005
625,21.121617360306775,0.3002694204279591,21.087822772530284,0.4048308391147398,1.0,29.590537000000005
626,21.155411948083266,-0.5244356259873295,21.121617360306775,1.216203254701428,1.0,29.590537000000005
627,21.189206535859757,-1.250253725200014,21.155411948083266,1.6755890928120456,1.0,29.590537000000005
628,21.223001123636248,-1.6900862352863701,21.189206535859757,1.6512229258089373,1.0,29.590537000000005
629,21.25679571141274,-1.7684892877860763,20.95264442142432,-1.2622642825459223,9.0,266.314833
630,21.29059029918923,-1.5310341651196986,21.25679571141274,0.6305629205732529,1.0,29.590537000000005
631,21.32438488696572,-1.0965853862592903,21.25679571141274,0.6305629205732529,2.0,59.18107400000001
632,21.35817947474221,-0.5802204104867373,21.29059029918923,0.09429186215741145,2.0,59.18107400000001
633,21.391974062518702,-0.036565968404285096,21.32438488696572,-0.2771678038555452,2.0,59.18107400000001
634,21.425768650295193,0.5353035278502936,21.35817947474221,-0.5319447082622071,2.0,59.18107400000001
635,21.459563238071684,1.1287081679307203,21.391974062518702,-0.7918181081440799,2.0,59.18107400000001
636,21.493357825848175,1.662026584556425,21.425768650295193,-1.1247503521980629,2.0,59.18107400000001
637,21.527152413624666,1.9722055129092078,21.459563238071684,-1.4600058506277656,2.0,59.18107400000001
638,21.560947001401157,1.8880415994533475,21.493357825848175,-1.6077601233734675,2.0,59.18107400000001
639,21.594741589177648,1.336294849481622,22.06786581804852,-0.899174123589537,-14.0,-414.26751800000005
640,21.62853617695414,0.4076038108807153,22.10166040582501,0.026724273784229566,-14.0,-414.26751800000005
641,21.66233076473063,-0.6573632892470885,22.135454993601503,1.049758699779004,-14.0,-414.26751800000005
642,21.69612535250712,-1.5472830856037902,22.169249581377994,1.8155294888937026,-14.0,-414.26751800000005
643,21.72991994028361,-1.9856825027153622,21.932687466942557,-0.9006289968115413,-6.0,-177.54322200000001
644,21.763714528060103,-1.8307424309506737,21.966482054719048,-1.268301296145529,-6.0,-177.54322200000001
645,21.797509115836593,-1.1438962525344518,21.72991994028361,1.3442255874137867,2.0,59.18107400000001
646,21.831303703613084,-0.1916755588151173,21.763714528060103,0.7507919449065127,2.0,59.18107400000001
647,21.865098291389575,0.6498541147149796,21.797509115836593,0.20302664632080533,2.0,59.18107400000001
648,21.898892879166066,1.068017836357086,21.831303703613084,-0.165905608441077,2.0,59.18107400000001
649,21.932687466942557,0.9749238294893896,21.865098291389575,-0.38830612714369417,2.0,59.18107400000001
650,21.966482054719048,0.5496916108498149,21.898892879166066,-0.5978087959452719,2.0,59.18107400000001
651,22.00027664249554,0.1200123773844176,21.932687466942557,-0.9006289968115413,2.0,59.18107400000001
652,22.03407123027203,-0.04772294792611255,21.966482054719048,-1.268301296145529,2.0,59.18107400000001
653,22.06786581804852,0.08899145028942922,22.00027664249554,-1.5249488046852224,2.0,59.18107400000001
654,22.10166040582501,0.34153652007009677,22.03407123027203,-1.444045601354763,2.0,59.18107400000001
655,22.135454993601503,0.4369109358420219,22.06786581804852,-0.899174123589537,2.0,59.18107400000001
656,22.16924958137799,0.21207388215464587,22.101660405825008,0.026724273784132224,2.0,59.18107400000001
657,22.20304416915448,-0.2755221228571382,22.1354549936015,1.0497586997788966,2.0,59.18107400000001
658,22.236838756930972,-0.7845747516503233,21.662330764730626,1.6830752086759437,17.0,503.03912900000006
659,22.270633344707463,-1.0330230308145683,21.696125352507117,1.7322854963546175,17.0,503.03912900000006
660,22.304427932483954,-0.8483338450502769,21.729919940283608,1.3442255874138276,17.0,503.03912900000006
661,22.338222520260445,-0.2448947665388374,21.7637145280601,0.7507919449065751,17.0,503.03912900000006
662,22.372017108036935,0.5939262427591112,22.304427932483954,0.5245230534061845,2.0,59.18107400000001
663,22.405811695813426,1.4048891430014834,22.338222520260445,-0.014118429334329871,2.0,59.18107400000001
664,22.439606283589917,1.9565905907022119,22.372017108036935,-0.370933140038228,2.0,59.18107400000001
665,22.473400871366408,2.1287267273384334,22.405811695813426,-0.6376390578363769,2.0,59.18107400000001
666,22.5071954591429,1.9219380896593454,22.439606283589917,-0.9330263392304016,2.0,59.18107400000001
667,22.54099004691939,1.404572610896657,22.473400871366408,-1.2840412132147516,2.0,59.18107400000001
668,22.57478463469588,0.6463452319852508,22.5071954591429,-1.5772274661567114,2.0,59.18107400000001
669,22.608579222472372,-0.3046147917713995,22.54099004691939,-1.6151592309527882,2.0,59.18107400000001
670,22.642373810248863,-1.3869589323378626,22.57478463469588,-1.2458617411593547,2.0,59.18107400000001
671,22.676168398025354,-2.4730391967292285,22.608579222472372,-0.4836288450333837,2.0,59.18107400000001
672,22.709962985801845,-3.3532515804236764,22.642373810248863,0.4608984672262141,2.0,59.18107400000001
673,22.743757573578335,-3.785293734516589,22.676168398025354,1.2695698156774098,2.0,59.18107400000001
674,22.777552161354826,-3.593408259652752,22.709962985801845,1.6754425992715873,2.0,59.18107400000001
675,22.811346749131317,-2.7694185629509436,22.743757573578335,1.5943539854298208,2.0,59.18107400000001
676,22.84514133690781,-1.513459219141504,22.777552161354826,1.1492126464895676,2.0,59.18107400000001
677,22.8789359246843,-0.1719512944604305,22.811346749131317,0.5774509846071129,2.0,59.18107400000001
678,22.91273051246079,0.9117500461010534,22.84514133690781,0.0863876755550453,2.0,59.18107400000001
679,22.94652510023728,1.5536824671975316,22.8789359246843,-0.25047893737649135,2.0,59.18107400000001
680,22.980319688013772,1.7949128569526058,22.91273051246079,-0.49589797499329785,2.0,59.18107400000001
681,23.014114275790263,1.8345236215010263,22.94652510023728,-0.7580614092510595,2.0,59.18107400000001
682,23.047908863566754,1.8782552580921403,22.980319688013772,-1.074087336909899,2.0,59.18107400000001
683,23.081703451343245,2.005041719808703,23.014114275790263,-1.3500726586697944,2.0,59.18107400000001
684,23.115498039119736,2.133168218031017,23.047908863566754,-1.402317730208269,2.0,59.18107400000001
685,23.149292626896226,2.095418816380104,23.081703451343245,-1.077280230212157,2.0,59.18107400000001
686,23.183087214672717,1.7630179565190307,23.115498039119736,-0.3727894647503968,2.0,59.18107400000001
687,23.21688180244921,1.1350774570677116,23.149292626896226,0.5231366548163489,2.0,59.18107400000001
688,23.2506763902257,0.34341314913237936,23.183087214672717,1.3091010235833977,2.0,59.18107400000001
689,23.28447097800219,-0.41591359797010724,23.21688180244921,1.7201743278638386,2.0,59.18107400000001
690,23.31826556577868,-0.9711064438256115,23.2506763902257,1.6590663971276476,2.0,59.18107400000001
691,23.352060153555172,-1.2338363223008488,23.28447097800219,1.2293021447907553,2.0,59.18107400000001
692,23.385854741331663,-1.211150626306992,23.31826556577868,0.6555918598669794,2.0,59.18107400000001
693,23.419649329108154,-0.979626014596146,23.352060153555172,0.14757291307814863,2.0,59.18107400000001
694,23.453443916884645,-0.644272859443082,23.385854741331663,-0.20612413370437338,2.0,59.18107400000001
695,23.487238504661136,-0.3046712152828924,23.419649329108154,-0.4520946677103591,2.0,59.18107400000001
696,23.521033092437627,-0.03816717527534654,23.453443916884645,-0.694805498481242,2.0,59.18107400000001
697,23.554827680214117,0.1068710336073528,23.487238504661136,-0.9857304978489483,2.0,59.18107400000001
698,23.58862226799061,0.11847272044968403,23.521033092437627,-1.2568423938429667,2.0,59.18107400000001
699,23.6224168557671,0.026168257804938446,23.554827680214117,-1.3467117417158294,2.0,59.18107400000001
700,23.65621144354359,-0.1106351449972305,23.58862226799061,-1.106114450199238,2.0,59.18107400000001
701,23.69000603132008,-0.23444436160470514,23.6224168557671,-0.5148000809105915,2.0,59.18107400000001
702,23.723800619096572,-0.3216145565318144,23.65621144354359,0.2712647432122943,2.0,59.18107400000001
703,23.757595206873063,-0.38761199661144347,23.69000603132008,0.9808155842274012,2.0,59.18107400000001
704,23.79138979464955,-0.4593107508477203,23.72380061909657,1.3640241154200252,2.0,59.18107400000001
705,23.82518438242604,-0.5368499661000794,23.75759520687306,1.3209798740352776,2.0,59.18107400000001
706,23.858978970202532,-0.577742037663758,23.79138979464955,0.9421976673635422,2.0,59.18107400000001
707,23.892773557979023,-0.5177551172540952,23.82518438242604,0.4390168084732845,2.0,59.18107400000001
708,23.926568145755514,-0.3132503912321483,23.858978970202532,0.012311413398128437,2.0,59.18107400000001
709,23.960362733532005,0.026031132325830358,23.892773557979023,-0.2556875965927802,2.0,59.18107400000001
710,23.994157321308496,0.4365340104390688,23.926568145755514,-0.4208599512989529,2.0,59.18107400000001
711,24.027951909084987,0.8317676606924819,23.960362733532005,-0.6017549841880218,2.0,59.18107400000001
712,24.061746496861478,1.1393028279056172,23.994157321308496,-0.8639773488018313,2.0,59.18107400000001
713,24.09554108463797,1.3135659528685155,24.027951909084987,-1.1443542953500965,2.0,59.18107400000001
714,24.12933567241446,1.3189604258700605,24.061746496861478,-1.269460962687519,2.0,59.18107400000001
715,24.16313026019095,1.1130345162332311,24.09554108463797,-1.062214257415678,2.0,59.18107400000001
716,24.19692484796744,0.6645227098435474,24.12933567241446,-0.47071118521039595,2.0,59.18107400000001
717,24.230719435743932,0.0021629635037022704,24.16313026019095,0.36645145516726313,2.0,59.18107400000001
718,24.264514023520423,-0.7537671640998894,24.19692484796744,1.1681955458140227,2.0,59.18107400000001
719,24.298308611296914,-1.4209383210294475,24.230719435743932,1.64992238871087,2.0,59.18107400000001
720,24.332103199073405,-1.8342931715777024,24.264514023520423,1.6697485877192353,2.0,59.18107400000001
721,24.365897786849896,-1.9152112006683197,24.298308611296914,1.2915978569908426,2.0,59.18107400000001
722,24.399692374626387,-1.6799382930662006,24.332103199073405,0.7288576446616458,2.0,59.18107400000001
723,24.433486962402878,-1.1943656678689136,24.365897786849896,0.20973137081902274,2.0,59.18107400000001
724,24.46728155017937,-0.5291937071639552,24.399692374626387,-0.14718564837475076,2.0,59.18107400000001
725,24.50107613795586,0.24077876713192653,24.670049076838314,0.2786730991211894,-5.0,-147.95268500000003
726,24.53487072573235,1.0051973639791536,24.46728155017937,-0.573579578206501,2.0,59.18107400000001
727,24.56866531350884,1.6080546498266914,24.50107613795586,-0.8335848962614226,2.0,59.18107400000001
728,24.602459901285332,1.8933396299913785,24.53487072573235,-1.10919643753324,2.0,59.18107400000001
729,24.636254489061823,1.7799091651287773,24.56866531350884,-1.243889183441095,2.0,59.18107400000001
730,24.670049076838314,1.302959500292148,24.602459901285332,-1.0651980644829184,2.0,59.18107400000001
731,24.703843664614805,0.5879430153722519,24.636254489061823,-0.514825643293535,2.0,59.18107400000001
732,24.737638252391296,-0.21528890053853728,24.90661119127375,-0.4501266971635684,-5.0,-147.95268500000003
733,24.771432840167787,-0.9801779900758828,24.94040577905024,-0.6933244339898831,-5.0,-147.95268500000003
734,24.805227427944278,-1.6045146821935543,24.974200366826732,-0.898498551610788,-5.0,-147.95268500000003
735,24.83902201572077,-1.9893554894190244,25.007994954603223,-1.137650662154769,-5.0,-147.95268500000003
736,24.87281660349726,-2.0395249523457775,25.041789542379714,-1.3680531870416606,-5.0,-147.95268500000003
737,24.90661119127375,-1.6992733723827418,25.075584130156205,-1.4387312892214164,-5.0,-147.95268500000003
738,24.94040577905024,-0.9951795218687489,25.109378717932696,-1.1870631553112037,-5.0,-147.95268500000003
739,24.974200366826732,-0.04898638725281781,25.143173305709187,-0.5641574170294446,-5.0,-147.95268500000003
740,25.007994954603223,0.9518359007027895,25.176967893485678,0.2967427813901525,-5.0,-147.95268500000003
741,25.041789542379714,1.808923284808984,25.21076248126217,1.1221380506806256,-5.0,-147.95268500000003
742,25.075584130156205,2.366824254888896,25.24455706903866,1.6320207300936143,-5.0,-147.95268500000003
743,25.109378717932696,2.5471424720525677,25.27835165681515,1.6838449656431365,-5.0,-147.95268500000003
744,25.143173305709187,2.355405513912205,25.31214624459164,1.3362445009510096,-5.0,-147.95268500000003
745,25.176967893485678,1.861502057947132,25.345940832368132,0.7953373751478177,-5.0,-147.95268500000003
746,25.21076248126217,1.1646929994229316,25.109378717932696,-1.1870631553112037,3.0,88.77161100000001
747,25.24455706903866,0.36441904158800786,25.176967893485678,0.2967427813901525,2.0,59.18107400000001
748,25.27835165681515,-0.44516193506170526,25.447324595697605,-0.327361669881084,-5.0,-147.95268500000003
749,25.31214624459164,-1.1613731214311067,25.481119183474096,-0.5583150622707498,-5.0,-147.95268500000003
750,25.345940832368132,-1.6670105661349626,25.514913771250587,-0.8466458312062081,-5.0,-147.95268500000003
751,25.379735420144623,-1.856108900506616,25.548708359027078,-1.1453151597995717,-5.0,-147.95268500000003
752,25.413530007921114,-1.685025457878921,25.58250294680357,-1.2943463679062328,-5.0,-147.95268500000003
753,25.4473245956976,-1.2118580656368123,25.616297534580056,-1.1185502720514007,-5.0,-147.95268500000003
754,25.481119183474092,-0.5870949133520887,25.650092122356547,-0.5558622203010033,-5.0,-147.95268500000003
755,25.514913771250583,0.007106690584670949,25.683886710133038,0.2702145029058281,-5.0,-147.95268500000003
756,25.548708359027074,0.4313025030167609,25.71768129790953,1.0885918437687179,-5.0,-147.95268500000003
757,25.582502946803565,0.6297093156835837,25.75147588568602,1.6121940871654294,-5.0,-147.95268500000003
758,25.616297534580056,0.6204766427993543,25.78527047346251,1.6834013417701128,-5.0,-147.95268500000003
759,25.650092122356547,0.4573070573948633,25.819065061239,1.3437571040308671,-5.0,-147.95268500000003
760,25.683886710133038,0.19688682121586717,25.852859649015492,0.7887726888560155,-5.0,-147.95268500000003
761,25.71768129790953,-0.11182202363189901,25.886654236791983,0.24283996527213,-5.0,-147.95268500000003
762,25.75147588568602,-0.42401292596000856,25.920448824568474,-0.16359334108089138,-5.0,-147.95268500000003
763,25.78527047346251,-0.6966359213810579,25.954243412344965,-0.4402669050310525,-5.0,-147.95268500000003
764,25.819065061239,-0.8942041458111086,25.988038000121456,-0.685372572248561,-5.0,-147.95268500000003
765,25.852859649015492,-0.9961809589263276,26.021832587897947,-0.9771093529929877,-5.0,-147.95268500000003
766,25.886654236791983,-0.9942279406609529,26.055627175674438,-1.2846899280444166,-5.0,-147.95268500000003
767,25.920448824568474,-0.8784411739143602,26.08942176345093,-1.4621066271872443,-5.0,-147.95268500000003
768,25.954243412344965,-0.6283538982833132,26.12321635122742,-1.3345911029355615,-5.0,-147.95268500000003
769,25.988038000121456,-0.22652453510674683,26.15701093900391,-0.8251883008475279,-5.0,-147.95268500000003
770,26.021832587897947,0.30683576860586564,26.1908055267804,-0.03687347605539842,-5.0,-147.95268500000003
771,26.055627175674438,0.8840700082466475,26.224600114556893,0.7715332106362851,-5.0,-147.95268500000003
772,26.08942176345093,1.3570611536380608,26.258394702333383,1.3100601863402155,-5.0,-147.95268500000003
773,26.12321635122742,1.5722273254570958,26.292189290109874,1.409010801962023,-5.0,-147.95268500000003
774,26.15701093900391,1.449534414310512,26.325983877886365,1.1025784995105488,-5.0,-147.95268500000003
775,26.1908055267804,1.0362942205409142,26.359778465662856,0.5933489001387843,-5.0,-147.95268500000003
776,26.224600114556893,0.4934190680073926,26.393573053439347,0.12347380083982996,-5.0,-147.95268500000003
777,26.258394702333383,0.013712278716945692,26.427367641215838,-0.16395306410801633,-5.0,-147.95268500000003
778,26.292189290109874,-0.2782191550306575,26.46116222899233,-0.28800527390068675,-5.0,-147.95268500000003
779,26.325983877886365,-0.37777439829928877,27.001875633416184,-0.5981478397074685,-20.0,-591.8107400000001
780,26.359778465662856,-0.3712106479964588,27.035670221192674,-0.8289519270644796,-20.0,-591.8107400000001
781,26.393573053439347,-0.3526581128700956,27.069464808969165,-1.131324804725922,-20.0,-591.8107400000001
782,26.427367641215838,-0.35217254374765117,27.103259396745656,-1.3823949046525097,-20.0,-591.8107400000001
783,26.46116222899233,-0.3263203591212265,27.137053984522147,-1.3728790394001624,-20.0,-591.8107400000001
784,26.49495681676882,-0.21141919047444743,27.170848572298638,-0.9499997615048518,-20.0,-591.8107400000001
785,26.52875140454531,0.007598968755987391,27.20464316007513,-0.1448718087984376,-20.0,-591.8107400000001
786,26.5625459923218,0.26715912311308937,27.23843774785162,0.8054910052076505,-20.0,-591.8107400000001
787,26.596340580098293,0.45517825931251477,27.27223233562811,1.5651758755558784,-20.0,-591.8107400000001
788,26.630135167874784,0.4789618056378568,27.306026923404602,1.8725150322120443,-20.0,-591.8107400000001
789,26.663929755651274,0.32489607937925147,27.339821511181093,1.67080911216813,-20.0,-591.8107400000001
790,26.697724343427765,0.07056769971180202,27.373616098957584,1.116850003803202,-20.0,-591.8107400000001
791,26.731518931204256,-0.1606731598235537,27.407410686734075,0.46919939791893517,-20.0,-591.8107400000001
792,26.765313518980747,-0.27636923445932987,27.441205274510565,-0.06588173342053108,-20.0,-591.8107400000001
793,26.799108106757238,-0.2740347955914315,27.474999862287056,-0.43244673950289886,-20.0,-591.8107400000001
794,26.83290269453373,-0.24150096383707598,27.508794450063547,-0.7112366726962037,-20.0,-591.8107400000001
795,26.86669728231022,-0.2935950727306153,27.542589037840038,-1.013180205905463,-20.0,-591.8107400000001
796,26.90049187008671,-0.48352714986417905,28.08330244226389,-1.105983271892555,-35.0,-1035.6687950000003
797,26.9342864578632,-0.7482686593368542,28.11709703004038,-1.386727710064788,-35.0,-1035.6687950000003
798,26.968081045639693,-0.9288910322117293,28.15089161781687,-1.429612288287808,-35.0,-1035.6687950000003
799,27.001875633416184,-0.8597979466771802,28.184686205593362,-1.0679818856714423,-35.0,-1035.6687950000003
800,27.035670221192674,-0.47508936837414295,28.218480793369853,-0.3022548966456353,-35.0,-1035.6687950000003
801,27.069464808969162,0.13543286031778046,28.25227538114634,0.6598824928962962,-35.0,-1035.6687950000003
802,27.103259396745653,0.7610760938664812,28.25227538114634,0.6598824928962962,-34.0,-1006.0782580000001
803,27.137053984522144,1.178658475283604,28.28606996892283,1.4903552615930482,-34.0,-1006.0782580000001
804,27.170848572298635,1.2669492154621083,28.319864556699322,1.9058127180116067,-34.0,-1006.0782580000001
805,27.204643160075126,1.0560560519205837,28.387453732252304,1.3215041433422368,-35.0,-1035.6687950000003
806,27.238437747851616,0.687178865954512,28.421248320028795,0.6905919041880453,-35.0,-1035.6687950000003
807,27.272232335628107,0.3171327821520541,28.455042907805286,0.13974143684295415,-35.0,-1035.6687950000003
808,27.3060269234046,0.03185803294483138,28.488837495581777,-0.2469533816594027,-35.0,-1035.6687950000003
809,27.33982151118109,-0.1802150621047526,28.522632083358268,-0.5361204400449626,-35.0,-1035.6687950000003
810,27.37361609895758,-0.38664097512498513,28.55642667113476,-0.854189434686734,-35.0,-1035.6687950000003
811,27.40741068673407,-0.6364799931433848,29.097140075558613,-0.9979633003702943,-50.0,-1479.5268500000002
812,27.441205274510562,-0.9063436365786864,29.130934663335104,-1.317416141062942,-50.0,-1479.5268500000002
813,27.474999862287053,-1.1039206178910175,29.164729251111595,-1.4799596025976207,-50.0,-1479.5268500000002
814,27.508794450063544,-1.1253634203932192,29.198523838888086,-1.2956217495478761,-50.0,-1479.5268500000002
815,27.542589037840035,-0.924477213267151,29.232318426664577,-0.6904629268329344,-50.0,-1479.5268500000002
816,27.576383625616526,-0.544018466693189,29.266113014441068,0.208750197037818,-50.0,-1479.5268500000002
817,27.610178213393016,-0.0893038832830744,29.29990760221756,1.1101087114099157,-50.0,-1479.5268500000002
818,27.643972801169507,0.3337970999419171,29.33370218999405,1.6982784266833646,-50.0,-1479.5268500000002
819,27.677767388946,0.672728784228446,29.36749677777054,1.7959589877013822,-50.0,-1479.5268500000002
820,27.71156197672249,0.938589014602041,29.40129136554703,1.443797394836446,-50.0,-1479.5268500000002
821,27.74535656449898,1.1664256945301332,29.435085953323522,0.8517710521438457,-50.0,-1479.5268500000002
822,27.77915115227547,1.3540588273586416,29.468880541100013,0.2599724218220258,-50.0,-1479.5268500000002
823,27.812945740051962,1.4298129813477625,29.502675128876504,-0.19698548931874904,-50.0,-1479.5268500000002
824,27.846740327828453,1.285873538620487,29.536469716652995,-0.5361211059247223,-50.0,-1479.5268500000002
825,27.880534915604944,0.8639071700377541,28.556426671134762,-0.8541894346867674,-20.0,-591.8107400000001
826,27.914329503381435,0.2295816044665352,28.590221258911253,-1.2585295851038794,-20.0,-591.8107400000001
827,27.948124091157926,-0.4298441046808736,28.624015846687744,-1.6581142444538468,-20.0,-591.8107400000001
828,27.981918678934417,-0.8959617688432016,28.657810434464235,-1.8409198342597088,-20.0,-591.8107400000001
829,28.015713266710907,-1.0407491696712894,28.691605022240726,-1.5984635545120311,-20.0,-591.8107400000001
830,28.0495078544874,-0.8980034067572532,28.725399610017217,-0.8729781190900512,-20.0,-591.8107400000001
831,28.08330244226389,-0.6393176900359338,28.759194197793708,0.16897448179465033,-20.0,-591.8107400000001
832,28.11709703004038,-0.4719048697536853,28.759194197793708,0.16897448179465033,-19.0,-562.2202030000001
833,28.15089161781687,-0.5199368652846321,27.812945740051962,1.826974037788738,10.0,295.90537000000006
834,28.184686205593362,-0.7558706839820555,27.846740327828453,1.6667374795830916,10.0,295.90537000000006
835,28.218480793369853,-1.0193585581874782,27.880534915604944,1.1435511150706807,10.0,295.90537000000006
836,28.252275381146344,-1.1153292008842637,27.914329503381435,0.5198527949443976,10.0,295.90537000000006
837,28.286069968922835,-0.9370920859841204,27.948124091157926,0.012371609619286857,10.0,295.90537000000006
838,28.319864556699326,-0.5374040432315635,27.981918678934417,-0.313443155831533,10.0,295.90537000000006
839,28.353659144475817,-0.09411997150740534,28.015713266710907,-0.5387831081160925,10.0,295.90537000000006
840,28.387453732252308,0.21431066719031472,28.015713266710907,-0.5387831081160925,11.0,325.49590700000005
841,28.4212483200288,0.3385010635860503,28.0495078544874,-0.7888455470456021,11.0,325.49590700000005
842,28.45504290780529,0.39389421112027406,28.08330244226389,-1.105983271892555,11.0,325.49590700000005
843,28.48883749558178,0.5656257506055362,28.11709703004038,-1.386727710064788,11.0,325.49590700000005
844,28.52263208335827,0.9461665783560725,28.15089161781687,-1.429612288287808,11.0,325.49590700000005
845,28.556426671134762,1.4320225178847357,28.184686205593362,-1.0679818856714423,11.0,325.49590700000005
846,28.590221258911253,1.7689470663733975,28.218480793369853,-0.3022548966456353,11.0,325.49590700000005
847,28.624015846687744,1.7187136198267832,28.252275381146344,0.6598824928963973,11.0,325.49590700000005
848,28.657810434464235,1.224015505984378,28.286069968922835,1.4903552615931355,11.0,325.49590700000005
849,28.691605022240726,0.45436635037709006,28.319864556699326,1.9058127180116504,11.0,325.49590700000005
850,28.725399610017213,-0.29096955509571876,28.353659144475813,1.809167082066334,11.0,325.49590700000005
851,28.759194197793704,-0.7511474551969055,28.387453732252304,1.3215041433422368,11.0,325.49590700000005
852,28.792988785570195,-0.8371560934739403,28.421248320028795,0.6905919041880453,11.0,325.49590700000005
853,28.826783373346686,-0.6578300310726303,28.455042907805286,0.13974143684295415,11.0,325.49590700000005
854,28.860577961123177,-0.43440839605263554,28.99575631222914,-0.11614445325968834,-4.0,-118.36214800000002
855,28.894372548899668,-0.3632514593126504,29.02955090000563,-0.4214870620307322,-4.0,-118.36214800000002
856,28.92816713667616,-0.5096690121564371,29.063345487782122,-0.6865729314406784,-4.0,-118.36214800000002
857,28.96196172445265,-0.787224700986782,29.097140075558613,-0.9979633003702943,-4.0,-118.36214800000002
858,28.99575631222914,-1.02125004476003,29.130934663335104,-1.317416141062942,-4.0,-118.36214800000002
859,29.02955090000563,-1.0511712606860486,29.164729251111595,-1.4799596025976207,-4.0,-118.36214800000002
860,29.063345487782122,-0.8138705510438807,29.198523838888086,-1.2956217495478761,-4.0,-118.36214800000002
861,29.097140075558613,-0.36790037135684794,29.232318426664577,-0.6904629268329344,-4.0,-118.36214800000002
862,29.130934663335104,0.14673817047933385,29.266113014441068,0.208750197037818,-4.0,-118.36214800000002
863,29.164729251111595,0.5838570541002494,29.29990760221756,1.1101087114099157,-4.0,-118.36214800000002
864,29.198523838888086,0.8554727161629846,29.33370218999405,1.6982784266833646,-4.0,-118.36214800000002
865,29.232318426664577,0.9515576069839206,27.880534915604944,1.1435511150706807,40.0,1183.6214800000002
866,29.266113014441068,0.9146085843734295,28.894372548899668,1.5931318741665443,11.0,325.49590700000005
867,29.29990760221756,0.7974186731894517,28.96196172445265,0.34139440095163054,10.0,295.90537000000006
868,29.33370218999405,0.635495396460705,29.468880541100013,0.2599724218220258,-4.0,-118.36214800000002
869,29.36749677777054,0.44566209695926345,30.009593945523868,-0.09069127459172607,-19.0,-562.2202030000001
870,29.40129136554703,0.24075035104892684,30.04338853330036,-0.437429665490907,-19.0,-562.2202030000001
871,29.435085953323522,0.04320363571097717,30.07718312107685,-0.7621010796091471,-19.0,-562.2202030000001
872,29.468880541100013,-0.11362292755466247,30.11097770885334,-1.1445565008279108,-19.0,-562.2202030000001
873,29.502675128876504,-0.19854565404972088,30.14477229662983,-1.5313354791293772,-19.0,-562.2202030000001
874,29.536469716652995,-0.20313878475379268,30.178566884406322,-1.7371190986625518,-19.0,-562.2202030000001
875,29.570264304429486,-0.15427043399105522,29.232318426664577,-0.6904629268329344,10.0,295.90537000000006
876,29.604058892205977,-0.10330657589343828,29.266113014441068,0.208750197037818,10.0,295.90537000000006
877,29.637853479982468,-0.09383770070450076,29.29990760221756,1.1101087114099157,10.0,295.90537000000006
878,29.67164806775896,-0.13144508031963087,29.33370218999405,1.6982784266833646,10.0,295.90537000000006
879,29.70544265553545,-0.18147452069872128,28.82678337334669,1.8531194354286953,26.0,769.3539620000001
880,29.73923724331194,-0.1989327374361191,28.86057796112318,1.9684432937289273,26.0,769.3539620000001
881,29.77303183108843,-0.1686580645516587,29.435085953323522,0.8517710521438457,10.0,295.90537000000006
882,29.806826418864922,-0.1258463384440934,29.468880541100013,0.2599724218220258,10.0,295.90537000000006
883,29.840621006641413,-0.1414454398837693,29.502675128876504,-0.19698548931874904,10.0,295.90537000000006
884,29.874415594417904,-0.28174415042378204,29.536469716652995,-0.5361211059247223,10.0,295.90537000000006
885,29.908210182194395,-0.5673104308369208,29.570264304429486,-0.8605727797322752,10.0,295.90537000000006
886,29.942004769970886,-0.9515078991108628,29.604058892205977,-1.2350798165816368,10.0,295.90537000000006
887,29.975799357747377,-1.3224641440679308,29.637853479982468,-1.5934195895488028,10.0,295.90537000000006
888,30.009593945523868,-1.525209320543683,29.637853479982468,-1.5934195895488028,11.0,325.49590700000005
889,30.04338853330036,-1.406453153395045,29.67164806775896,-1.7472993639114789,11.0,325.49590700000005
890,30.07718312107685,-0.8831769542307786,29.70544265553545,-1.498595208649899,11.0,325.49590700000005
891,30.11097770885334,-0.013298483395227767,29.73923724331194,-0.7851374108060967,11.0,325.49590700000005
892,30.14477229662983,0.9799593286966561,29.77303183108843,0.23871147395681006,11.0,325.49590700000005
893,30.178566884406322,1.7724394277852242,29.806826418864922,1.2488384641569412,11.0,325.49590700000005
894,30.212361472182813,2.083458316286336,29.840621006641413,1.9057202347159066,11.0,325.49590700000005
895,30.246156059959304,1.8269959719759927,29.874415594417904,2.0239215812866433,11.0,325.49590700000005
896,30.279950647735795,1.172120119939387,29.908210182194395,1.652627488118057,11.0,325.49590700000005
897,30.313745235512286,0.4606565064878749,29.942004769970886,1.0211462177417983,11.0,325.49590700000005
898,30.347539823288773,0.020091191302693105,29.975799357747373,0.3905204178512356,11.0,325.49590700000005
899,30.381334411065264,-0.0193225269752657,30.009593945523864,-0.09069127459167553,11.0,325.49590700000005
900,30.415128998841755,0.20875401672893804,30.043388533300355,-0.4374296654908705,11.0,325.49590700000005
901,30.448923586618246,0.40159413770936947,30.077183121076846,-0.762101079609113,11.0,325.49590700000005
902,30.482718174394737,0.2907996695507936,30.110977708853337,-1.1445565008278706,11.0,325.49590700000005
903,30.516512762171228,-0.1715025480279749,30.144772296629828,-1.5313354791293365,11.0,325.49590700000005
904,30.55030734994772,-0.7666459108695728,30.17856688440632,-1.73711909866253,11.0,325.49590700000005
905,30.58410193772421,-1.1407968999993665,30.21236147218281,-1.5536612426684875,11.0,325.49590700000005
906,30.6178965255007,-1.0333455175993451,30.2461560599593,-0.8984156125912338,11.0,325.49590700000005
907,30.65169111327719,-0.4530938314624066,30.27995064773579,0.09635325008112838,11.0,325.49590700000005
908,30.685485701053683,0.3158236282511445,30.313745235512283,1.1196731118957184,11.0,325.49590700000005
909,30.719280288830173,0.8838984901123834,30.347539823288773,1.8288777139483277,11.0,325.49590700000005
910,30.753074876606664,0.9906591880173474,30.381334411065264,2.019284838771234,11.0,325.49590700000005
911,30.786869464383155,0.6504683808173373,30.415128998841755,1.7124174209099445,11.0,325.49590700000005
912,30.820664052159646,0.1185298445117594,29.908210182194395,1.652627488118057,27.0,798.9444990000002
913,30.854458639936137,-0.2915998462926494,29.942004769970886,1.0211462177417983,27.0,798.9444990000002
914,30.888253227712628,-0.4095989517785451,29.975799357747377,0.3905204178511693,27.0,798.9444990000002
915,30.92204781548912,-0.2929881332197655,30.009593945523868,-0.09069127459172607,27.0,798.9444990000002
916,30.95584240326561,-0.1456072941355348,30.04338853330036,-0.437429665490907,27.0,798.9444990000002
917,30.9896369910421,-0.13986933242654387,30.07718312107685,-0.7621010796091471,27.0,798.9444990000002
918,31.02343157881859,-0.28039100778421766,30.11097770885334,-1.1445565008279108,27.0,798.9444990000002
919,31.057226166595083,-0.4118767628076973,30.14477229662983,-1.5313354791293772,27.0,798.9444990000002
920,31.091020754371574,-0.3599936363978987,30.178566884406322,-1.7371190986625518,27.0,798.9444990000002
921,31.124815342148064,-0.08901497184444056,30.753074876606664,-0.9199272271811646,11.0,325.49590700000005
922,31.158609929924555,0.25164435044977307,30.786869464383155,0.12359512967551621,11.0,325.49590700000005
923,31.192404517701046,0.42992081294096257,30.820664052159646,1.1833622144229075,11.0,325.49590700000005
924,31.226199105477537,0.3023208660501648,30.854458639936137,1.906739918541459,11.0,325.49590700000005
925,31.259993693254028,-0.07810161243635289,30.888253227712628,2.081929915869323,11.0,325.49590700000005
926,31.29378828103052,-0.4955084329585589,30.92204781548912,1.732989701161734,11.0,325.49590700000005
927,31.32758286880701,-0.7159737445207137,30.95584240326561,1.0822243318634415,11.0,325.49590700000005
928,31.3613774565835,-0.6362758410278226,30.9896369910421,0.40866042441821593,11.0,325.49590700000005
929,31.39517204435999,-0.33790714466887734,31.02343157881859,-0.10665880230010381,11.0,325.49590700000005
930,31.428966632136483,-0.021980647577502215,31.057226166595083,-0.4550708911473484,11.0,325.49590700000005
931,31.462761219912974,0.1178959994801033,31.091020754371574,-0.7551591354573469,11.0,325.49590700000005
932,31.496555807689465,-0.0020885883598271314,31.124815342148064,-1.1244081640038108,11.0,325.49590700000005
933,31.530350395465955,-0.3288551262660912,31.158609929924555,-1.5553102568248978,11.0,325.49590700000005
934,31.564144983242446,-0.7102677016476345,31.192404517701046,-1.880835180782898,11.0,325.49590700000005
935,31.597939571018937,-0.9590846455558815,31.226199105477537,-1.8585723058849126,11.0,325.49590700000005
936,31.631734158795428,-0.9188062563024084,31.259993693254028,-1.3264237181218381,11.0,325.49590700000005
937,31.66552874657192,-0.5266603411202554,31.29378828103052,-0.33212219203949256,11.0,325.49590700000005
938,31.69932333434841,0.13972036123546488,31.32758286880701,0.8511002892964754,11.0,325.49590700000005
939,31.7331179221249,0.8669965981062551,31.3613774565835,1.8413656223926531,11.0,325.49590700000005
940,31.766912509901392,1.3893215079588015,32.91592849430208,0.1320958797770775,-34.0,-1006.0782580000001
941,31.800707097677883,1.5254667416644303,32.94972308207857,0.06465592760035159,-34.0,-1006.0782580000001
942,31.834501685454374,1.288097202927539,32.98351766985506,0.006154143769066254,-34.0,-1006.0782580000001
943,31.868296273230865,0.8794992659716058,33.01731225763155,-0.011590703640050022,-34.0,-1006.0782580000001
944,31.902090861007355,0.5589175117450808,33.05110684540804,0.020773234968428797,-34.0,-1006.0782580000001
945,31.935885448783846,0.46555011501259247,33.084901433184534,0.06699145913358154,-34.0,-1006.0782580000001
946,31.969680036560337,0.5252729862318957,33.118696020961025,0.04439989860252283,-34.0,-1006.0782580000001
947,32.003474624336825,0.5132763494039176,33.152490608737516,-0.14194709855727758,-34.0,-1006.0782580000001
948,32.037269212113316,0.22880272357211112,33.18628519651401,-0.5375440169197175,-34.0,-1006.0782580000001
949,32.07106379988981,-0.3442984135803924,33.2200797842905,-1.0798070218251499,-34.0,-1006.0782580000001
950,32.1048583876663,-1.00234557053482,33.25387437206699,-1.584056580687704,-34.0,-1006.0782580000001
951,32.13865297544279,-1.4301804513465397,33.28766895984348,-1.8008683523251847,-34.0,-1006.0782580000001
952,32.17244756321928,-1.3779506691568704,33.32146354761997,-1.532515861929614,-34.0,-1006.0782580000001
953,32.20624215099577,-0.7988760247568388,33.35525813539646,-0.7527628562713077,-34.0,-1006.0782580000001
954,32.24003673877226,0.12518770210949534,33.38905272317295,0.34337450530682284,-34.0,-1006.0782580000001
955,32.27383132654875,1.075247868643019,33.42284731094944,1.4043483120970788,-34.0,-1006.0782580000001
956,32.30762591432524,1.7449324259246777,33.96356071537329,1.4510508967147486,-49.0,-1449.9363130000002
957,32.341420502101734,1.9627634921592634,33.99735530314978,1.9515829230350439,-49.0,-1449.9363130000002
958,32.375215089878225,1.7265314140513717,34.06494447870276,1.3976184876325004,-50.0,-1479.5268500000002
959,32.409009677654716,1.151616755768219,34.098739066479254,0.7401068688362359,-50.0,-1479.5268500000002
960,32.44280426543121,0.38953103614488377,34.132533654255745,0.17351507867581606,-50.0,-1479.5268500000002
961,32.4765988532077,-0.42339652901629604,34.166328242032236,-0.19603013687363827,-50.0,-1479.5268500000002
962,32.51039344098419,-1.172866587803257,34.20012282980873,-0.43517969487868413,-50.0,-1479.5268500000002
963,32.54418802876068,-1.7597522544389137,34.23391741758522,-0.6951969617754115,-50.0,-1479.5268500000002
964,32.57798261653717,-2.1097873735608266,34.26771200536171,-1.072092361240672,-50.0,-1479.5268500000002
965,32.61177720431366,-2.1939209298247815,34.3015065931382,-1.5061366665179372,-50.0,-1479.5268500000002
966,32.64557179209015,-2.031994734135275,34.33530118091469,-1.7882107185364509,-50.0,-1479.5268500000002
967,32.67936637986664,-1.6732976573369494,34.36909576869118,-1.6762013135824334,-50.0,-1479.5268500000002
968,32.713160967643134,-1.1801217231517267,34.40289035646767,-1.0548814418628774,-50.0,-1479.5268500000002
969,32.746955555419625,-0.6354815918049965,34.43668494424416,-0.03906444694926492,-50.0,-1479.5268500000002
970,32.780750143196116,-0.15505846582746224,34.470479532020654,1.0522726177172292,-50.0,-1479.5268500000002
971,32.81454473097261,0.1384601583065024,34.504274119797145,1.8449656641560932,-50.0,-1479.5268500000002
972,32.8483393187491,0.1862664160070661,34.538068707573636,2.095725464128829,-50.0,-1479.5268500000002
973,32.88213390652559,0.0585618973470373,34.80842540978556,-1.4499744464916675,-57.0,-1686.6606090000002
974,32.91592849430208,-0.054704598543565644,34.842219997562054,-1.827153140788475,-57.0,-1686.6606090000002
975,32.94972308207857,0.05470265540597341,34.876014585338545,-1.8993353912902073,-57.0,-1686.6606090000002
976,32.98351766985506,0.48025178196657237,34.909809173115036,-1.4849784121044067,-57.0,-1686.6606090000002
977,33.01731225763155,1.1303332117650888,34.6732470586796,-0.0072053827443260545,-49.0,-1449.9363130000002
978,33.05110684540804,1.7717678332935378,34.70704164645609,-0.35436383277277517,-49.0,-1449.9363130000002
979,33.084901433184534,2.1567282011517426,31.32758286880701,0.8511002892964754,52.0,1538.7079240000003
980,33.118696020961025,2.150165443295571,33.456641898725934,2.0794321270178755,-10.0,-295.90537000000006
981,33.152490608737516,1.7852013577452879,33.490436486502425,2.184409694056713,-10.0,-295.90537000000006
982,33.18628519651401,1.2278778748621562,33.524231074278916,1.7792366760714509,-10.0,-295.90537000000006
983,33.2200797842905,0.6838441868029467,33.55802566205541,1.1128975636897283,-10.0,-295.90537000000006
984,33.25387437206699,0.2985404032113153,33.5918202498319,0.47209867525392185,-10.0,-295.90537000000006
985,33.28766895984348,0.09495722958834486,31.530350395465955,0.3053524953107591,52.0,1538.7079240000003
986,33.32146354761997,-0.024906345663917105,31.564144983242446,-0.17615623498140606,52.0,1538.7079240000003
987,33.35525813539646,-0.21430796918029835,31.597939571018937,-0.5405710691760476,52.0,1538.7079240000003
988,33.38905272317295,-0.582265784670562,33.72699860093786,-0.7958974353393824,-10.0,-295.90537000000006
989,33.42284731094944,-1.111838824365754,33.76079318871435,-1.2460743787529287,-10.0,-295.90537000000006
990,33.456641898725934,-1.6435320803986597,33.79458777649084,-1.6556047657138173,-10.0,-295.90537000000006
991,33.490436486502425,-1.9416554672953252,33.828382364267334,-1.7735486387892034,-10.0,-295.90537000000006
992,33.524231074278916,-1.8168241254958846,33.862176952043825,-1.4096400396588042,-10.0,-295.90537000000006
993,33.55802566205541,-1.2382151137163058,33.895971539820316,-0.5712140774612853,-10.0,-295.90537000000006
994,33.5918202498319,-0.36588226026652276,33.92976612759681,0.504530199498889,-10.0,-295.90537000000006
995,33.62561483760839,0.5192861393336938,33.9635607153733,1.4510508967149478,-10.0,-295.90537000000006
996,33.65940942538488,1.1439698958857425,33.99735530314979,1.9515829230351491,-10.0,-295.90537000000006
997,33.69320401316137,1.3538207569190468,34.03114989092628,1.8918731917573306,-10.0,-295.90537000000006
998,33.72699860093786,1.1566949301817986,34.06494447870277,1.3976184876323965,-10.0,-295.90537000000006
999,33.76079318871435,0.6942743341494038,34.09873906647926,0.7401068688360977,-10.0,-295.90537000000006
1000,33.79458777649084,0.16831321649877248,34.13253365425575,0.1735150786756969,-10.0,-295.90537000000006
1001,33.828382364267334,-0.24604638412752378,34.16632824203224,-0.19603013687371595,-10.0,-295.90537000000006
1002,33.862176952043825,-0.46690436888593245,34.200122829808734,-0.4351796948787344,-10.0,-295.90537000000006
1003,33.895971539820316,-0.5227325291422356,34.233917417585225,-0.6951969617754662,-10.0,-295.90537000000006
1004,33.92976612759681,-0.51125482515819,34.267712005361716,-1.0720923612407514,-10.0,-295.90537000000006
1005,33.9635607153733,-0.5243733353647088,34.30150659313821,-1.5061366665180285,-10.0,-295.90537000000006
1006,33.99735530314979,-0.58333342375818,34.3353011809147,-1.7882107185365101,-10.0,-295.90537000000006
1007,34.03114989092628,-0.6210670630209887,34.36909576869119,-1.6762013135824099,-10.0,-295.90537000000006
1008,34.06494447870277,-0.5241572155100302,34.40289035646768,-1.0548814418627466,-10.0,-295.90537000000006
1009,34.09873906647926,-0.21689818198480137,34.43668494424417,-0.039064446949051285,-10.0,-295.90537000000006
1010,34.13253365425575,0.25952843427322386,34.47047953202066,1.052272617717396,-10.0,-295.90537000000006
1011,34.16632824203224,0.7315181717966659,34.50427411979715,1.8449656641561458,-10.0,-295.90537000000006
1012,34.200122829808734,0.9710790911346024,34.53806870757364,2.0957254641287673,-10.0,-295.90537000000006
1013,34.233917417585225,0.8329917560768418,34.571863295350134,1.8031870381767643,-10.0,-295.90537000000006
1014,34.267712005361716,0.3623666910879666,34.605657883126625,1.1800606347513511,-10.0,-295.90537000000006
1015,34.30150659313821,-0.20983831051637922,34.639452470903116,0.5114635242074168,-10.0,-295.90537000000006
1016,34.3353011809147,-0.5937798005264633,34.67324705867961,-0.007205382744399046,-10.0,-295.90537000000006
1017,34.36909576869119,-0.6131907144435522,34.16632824203224,-0.19603013687371595,6.0,177.54322200000001
1018,34.40289035646768,-0.30965242182002095,34.200122829808734,-0.4351796948787344,6.0,177.54322200000001
1019,34.43668494424417,0.0910047888789116,34.233917417585225,-0.6951969617754662,6.0,177.54322200000001
1020,34.470479532020654,0.32585221416583326,34.26771200536171,-1.072092361240672,6.0,177.54322200000001
1021,34.504274119797145,0.2561793062658959,34.842219997562054,-1.827153140788475,-10.0,-295.90537000000006
1022,34.538068707573636,-0.05968440033082834,34.876014585338545,-1.8993353912902073,-10.0,-295.90537000000006
1023,34.57186329535013,-0.41879294843270304,34.909809173115036,-1.4849784121044067,-10.0,-295.90537000000006
1024,34.60565788312662,-0.6044404290145386,34.94360376089153,-0.5936104612450063,-10.0,-295.90537000000006
1025,34.63945247090311,-0.5061241094509287,34.97739834866802,0.5407312318984171,-10.0,-295.90537000000006
1026,34.6732470586796,-0.16086376796118892,35.01119293644451,1.5552218614416262,-10.0,-295.90537000000006
1027,34.70704164645609,0.29144131550508107,35.044987524221,2.130973289695785,-10.0,-295.90537000000006
1028,34.74083623423258,0.6943821605598822,35.07878211199749,2.141576906479309,-10.0,-295.90537000000006
1029,34.77463082200907,0.9465162698551338,35.11257669977398,1.6927875824351024,-10.0,-295.90537000000006
1030,34.80842540978556,1.0241062750247187,35.14637128755047,1.0380179083910148,-10.0,-295.90537000000006
1031,34.842219997562054,0.9563867940446625,35.18016587532696,0.4282655513564353,-10.0,-295.90537000000006
1032,34.876014585338545,0.7812876787200684,35.213960463103454,-0.012641012152946824,-10.0,-295.90537000000006
1033,34.909809173115036,0.516208854141955,35.247755050879945,-0.3201361349511909,-10.0,-295.90537000000006
1034,34.94360376089153,0.16366701908808187,35.281549638656436,-0.6198030253657808,-10.0,-295.90537000000006
1035,34.97739834866802,-0.25559817239685223,35.31534422643293,-1.0063846813074484,-10.0,-295.90537000000006
1036,35.01119293644451,-0.6726209306570468,35.34913881420942,-1.4473616824069513,-10.0,-295.90537000000006
1037,35.044987524221,-0.9758559432576025,35.38293340198591,-1.7723618931382195,-10.0,-295.90537000000006
1038,35.07878211199749,-1.0599739122710985,35.38293340198591,-1.7723618931382195,-9.0,-266.314833
1039,35.11257669977398,-0.8889942095088179,35.4167279897624,-1.7605333535992287,-9.0,-266.314833
1040,35.14637128755047,-0.5281735887575119,35.45052257753889,-1.2791876898541188,-9.0,-266.314833
1041,35.18016587532696,-0.11964819527386918,34.97739834866802,0.5407312318984171,6.0,177.54322200000001
1042,35.213960463103454,0.18277949845705713,35.01119293644451,1.5552218614416262,6.0,177.54322200000001
1043,35.247755050879945,0.2804034989075842,35.044987524221,2.130973289695785,6.0,177.54322200000001
1044,35.281549638656436,0.16641770176037196,35.07878211199749,2.141576906479309,6.0,177.54322200000001
1045,35.31534422643293,-0.07650517441743326,35.619495516421345,1.687385522150754,-9.0,-266.314833
1046,35.34913881420942,-0.31192001648651274,35.653290104197836,1.165865484667736,-9.0,-266.314833
1047,35.38293340198591,-0.4068003105809664,35.68708469197433,0.551304255207709,-9.0,-266.314833
1048,35.4167279897624,-0.29302826893021705,35.18016587532696,0.4282655513564353,7.0,207.13375900000003
1049,35.45052257753889,-0.008032154595402156,35.247755050879945,-0.3201361349511909,6.0,177.54322200000001
1050,35.48431716531538,0.3128685015672163,35.281549638656436,-0.6198030253657808,6.0,177.54322200000001
1051,35.51811175309187,0.5025969811877623,35.82226304308029,-0.5387013158893368,-9.0,-266.314833
1052,35.55190634086836,0.45958297109952145,35.85605763085678,-0.8687309902030608,-9.0,-266.314833
1053,35.585700928644854,0.21752384460024052,35.88985221863327,-1.2904323268571019,-9.0,-266.314833
1054,35.619495516421345,-0.06371300402389479,35.923646806409764,-1.610363713115246,-9.0,-266.314833
1055,35.653290104197836,-0.1900479025108683,35.957441394186255,-1.59249312888536,-9.0,-266.314833
1056,35.68708469197433,-0.05586692871824163,35.991235981962745,-1.1025866933797512,-9.0,-266.314833
1057,35.72087927975082,0.28163287761091993,35.48431716531538,-0.39069596949234964,7.0,207.13375900000003
1058,35.75467386752731,0.6303361333172098,35.51811175309187,0.6439401483894506,7.0,207.13375900000003
1059,35.7884684553038,0.780324421669232,35.55190634086836,1.4774817347988767,7.0,207.13375900000003
1060,35.82226304308029,0.6349796744736087,35.585700928644854,1.8445693917304904,7.0,207.13375900000003
1061,35.85605763085678,0.27005414839496694,35.619495516421345,1.687385522150754,7.0,207.13375900000003
1062,35.88985221863327,-0.11838776612544778,35.653290104197836,1.165865484667736,7.0,207.13375900000003
1063,35.923646806409764,-0.3437381482520968,35.68708469197433,0.551304255207709,7.0,207.13375900000003
1064,35.957441394186255,-0.3499770766015417,35.72087927975082,0.07178158981914673,7.0,207.13375900000003
1065,35.991235981962745,-0.24145523831676885,35.75467386752731,-0.198840833707983,7.0,207.13375900000003
1066,36.025030569739236,-0.20189384798960558,35.7884684553038,-0.34903790473748325,7.0,207.13375900000003
1067,36.05882515751573,-0.36127392177689077,35.82226304308029,-0.5387013158893368,7.0,207.13375900000003
1068,36.09261974529222,-0.7019052293452093,35.85605763085678,-0.8687309902030608,7.0,207.13375900000003
1069,36.12641433306871,-1.0613753637112426,35.88985221863327,-1.2904323268571019,7.0,207.13375900000003
1070,36.1602089208452,-1.223868188063502,35.923646806409764,-1.610363713115246,7.0,207.13375900000003
1071,36.19400350862169,-1.0420871045252935,35.957441394186255,-1.59249312888536,7.0,207.13375900000003
1072,36.22779809639818,-0.5232265924404919,35.991235981962745,-1.1025866933797512,7.0,207.13375900000003
1073,36.26159268417467,0.1637312070351967,36.025030569739236,-0.21029892215754264,7.0,207.13375900000003
1074,36.295387271951164,0.7638261635570117,36.05882515751573,0.8169764687126705,7.0,207.13375900000003
1075,36.329181859727655,1.06071179433296,36.09261974529222,1.6328134229180933,7.0,207.13375900000003
1076,36.362976447504145,0.9886741779420419,36.12641433306871,1.97799437662029,7.0,207.13375900000003
1077,36.396771035280636,0.6691172124591765,36.1602089208452,1.798624282298081,7.0,207.13375900000003
1078,36.43056562305713,0.3412593939355319,36.19400350862169,1.2508923331888187,7.0,207.13375900000003
1079,36.46436021083362,0.21651204523196343,36.22779809639818,0.5976330593375001,7.0,207.13375900000003
1080,36.49815479861011,0.34178892260702354,36.26159268417467,0.064165780005404,7.0,207.13375900000003
1081,36.5319493863866,0.5649528133919004,36.83610067637502,-0.7173791172529264,-9.0,-266.314833
1082,36.56574397416309,0.6354165261409669,36.86989526415151,-0.7710841670913304,-9.0,-266.314833
1083,36.59953856193958,0.37919076360023046,36.903689851928,-0.8000539305966536,-9.0,-266.314833
1084,36.63333314971607,-0.16906091032616152,36.93748443970449,-0.875404362864021,-9.0,-266.314833
1085,36.667127737492564,-0.7682159031040058,36.97127902748098,-0.9612603056347874,-9.0,-266.314833
1086,36.700922325269055,-1.108314004110275,37.00507361525747,-0.9319044798597114,-9.0,-266.314833
1087,36.734716913045546,-0.9960897705921817,37.038868203033964,-0.6556239514198021,-9.0,-266.314833
1088,36.76851150082204,-0.4719756253625103,37.072662790810455,-0.09651771297525366,-9.0,-266.314833
1089,36.80230608859853,0.2127619833694305,37.106457378586946,0.6310175684551292,-9.0,-266.314833
1090,36.83610067637502,0.7424798618975391,37.14025196636344,1.297053779546632,-9.0,-266.314833
1091,36.86989526415151,0.9156000969644239,37.17404655413993,1.6669097204730847,-9.0,-266.314833
1092,36.903689851928,0.7461108155662557,37.20784114191642,1.622655797579964,-9.0,-266.314833
1093,36.93748443970449,0.4291051385461573,37.24163572969291,1.2202557247476467,-9.0,-266.314833
1094,36.97127902748098,0.19673345901753098,37.2754303174694,0.6488079511709461,-9.0,-266.314833
1095,37.00507361525747,0.15962250705887282,37.30922490524589,0.12080519534114365,-9.0,-266.314833
1096,37.038868203033964,0.23738729959877317,37.34301949302238,-0.2377531064055353,-9.0,-266.314833
1097,37.072662790810455,0.22264402285915785,36.295387271951164,-0.2626612625150204,23.0,680.5823510000001
1098,37.106457378586946,-0.06516753676546164,36.329181859727655,-0.44187825998945524,23.0,680.5823510000001
1099,37.14025196636344,-0.6372249119293649,36.362976447504145,-0.5998014780286853,23.0,680.5823510000001
1100,37.17404655413993,-1.2968907785733117,36.396771035280636,-0.82039855396764,23.0,680.5823510000001
1101,37.20784114191642,-1.7334444784170508,36.43056562305713,-1.07257911932291,23.0,680.5823510000001
1102,37.24163572969291,-1.6942592983474545,36.46436021083362,-1.2177335016586632,23.0,680.5823510000001
1103,37.2754303174694,-1.1319078471758173,36.49815479861011,-1.0938712155621322,23.0,680.5823510000001
1104,37.30922490524589,-0.23785794026561632,36.5319493863866,-0.6278210311602189,23.0,680.5823510000001
1105,37.34301949302238,0.653750343537575,36.56574397416309,0.09273682952611666,23.0,680.5823510000001
1106,37.37681408079887,1.2303093691753282,37.14025196636344,1.297053779546632,7.0,207.13375900000003
1107,37.410608668575364,1.3389595103803118,37.17404655413993,1.6669097204730847,7.0,207.13375900000003
1108,37.444403256351855,1.0322833349396618,37.20784114191642,1.622655797579964,7.0,207.13375900000003
1109,37.478197844128346,0.5128596969450194,37.24163572969291,1.2202557247476467,7.0,207.13375900000003
1110,37.51199243190484,0.0181223376751948,37.24163572969291,1.2202557247476467,8.0,236.72429600000004
1111,37.54578701968133,-0.29194632693487454,37.2754303174694,0.6488079511709461,8.0,236.72429600000004
1112,37.57958160745782,-0.3915213607574594,37.30922490524589,0.12080519534114365,8.0,236.72429600000004
1113,37.61337619523431,-0.3696174792135905,37.34301949302238,-0.2377531064055353,8.0,236.72429600000004
1114,37.6471707830108,-0.3547293782358623,37.37681408079887,-0.43401007713412215,8.0,236.72429600000004
1115,37.68096537078729,-0.43100634728672677,37.410608668575364,-0.5703138080671971,8.0,236.72429600000004
1116,37.71475995856378,-0.5907770072133225,37.444403256351855,-0.7508289935639872,8.0,236.72429600000004
1117,37.748554546340266,-0.739980678913027,38.01891124855219,-1.0343228491387273,-8.0,-236.72429600000004
1118,37.78234913411676,-0.7451757285154411,38.052705836328684,-1.3378576129412312,-8.0,-236.72429600000004
1119,37.81614372189325,-0.4995325706416624,38.086500424105175,-1.405160000839703,-8.0,-236.72429600000004
1120,37.84993830966974,0.01725416577111895,38.120295011881666,-1.058905427053876,-8.0,-236.72429600000004
1121,37.88373289744623,0.7115503785457631,38.15408959965816,-0.2965507674207289,-8.0,-236.72429600000004
1122,37.91752748522272,1.398950575714254,38.18788418743465,0.6742601680126327,-8.0,-236.72429600000004
1123,37.95132207299921,1.8729583951384134,38.22167877521114,1.5203738596588294,-8.0,-236.72429600000004
1124,37.9851166607757,1.9897447308076988,38.25547336298763,1.9461767194991517,-8.0,-236.72429600000004
1125,38.01891124855219,1.73039098072682,38.28926795076412,1.841000276381147,-8.0,-236.72429600000004
1126,38.052705836328684,1.2102794604394502,38.32306253854061,1.3239813639086597,-8.0,-236.72429600000004
1127,38.086500424105175,0.6258409921258549,38.3568571263171,0.6632235814317549,-8.0,-236.72429600000004
1128,38.120295011881666,0.15868038328393957,38.39065171409359,0.122433659709259,-8.0,-236.72429600000004
1129,38.15408959965816,-0.11397646478452514,38.424446301870084,-0.17302434366102093,-8.0,-236.72429600000004
1130,38.18788418743465,-0.248478593586082,38.458240889646575,-0.27742524035757754,-8.0,-236.72429600000004
1131,38.22167877521114,-0.38236563167886656,38.492035477423066,-0.35821997927878885,-8.0,-236.72429600000004
1132,38.25547336298763,-0.6316007750952145,38.52583006519956,-0.5672463961006046,-8.0,-236.72429600000004
1133,38.28926795076412,-1.0027015669891233,38.55962465297605,-0.9265307564571791,-8.0,-236.72429600000004
1134,38.32306253854061,-1.3772868974800214,38.59341924075254,-1.295501003356953,-8.0,-236.72429600000004
1135,38.3568571263171,-1.5823148180286104,38.62721382852903,-1.4417020006539794,-8.0,-236.72429600000004
1136,38.39065171409359,-1.504318201625142,38.66100841630552,-1.179002533214087,-8.0,-236.72429600000004
1137,38.424446301870084,-1.1734475777529494,38.69480300408201,-0.49480563629060914,-8.0,-236.72429600000004
1138,38.458240889646575,-0.7568941883829806,38.7285975918585,0.41297395631166,-8.0,-236.72429600000004
1139,38.492035477423066,-0.4579869145741874,38.76239217963499,1.220049745951366,-8.0,-236.72429600000004
1140,38.52583006519956,-0.3835955357951391,38.796186767411484,1.6380145354974494,-8.0,-236.72429600000004
1141,38.55962465297605,-0.4714776506568355,38.829981355187975,1.5594706180347315,-8.0,-236.72429600000004
1142,38.59341924075254,-0.5324513257514537,38.863775942964466,1.0991905774342265,-8.0,-236.72429600000004
1143,38.62721382852903,-0.38112446037405995,38.89757053074096,0.5103449942354824,-8.0,-236.72429600000004
1144,38.66100841630552,0.03374783746624495,38.93136511851745,0.032334971759610885,-8.0,-236.72429600000004
1145,38.69480300408201,0.5845911727314171,38.96515970629394,-0.2359119304572093,-8.0,-236.72429600000004
1146,38.7285975918585,1.0315618845981929,38.99895429407043,-0.3655919707557975,-8.0,-236.72429600000004
1147,38.76239217963499,1.1576661268059025,39.03274888184692,-0.5207316265597318,-8.0,-236.72429600000004
1148,38.796186767411484,0.8933409195168344,39.06654346962341,-0.8259656784382318,-8.0,-236.72429600000004
1149,38.829981355187975,0.36111842670851296,39.1003380573999,-1.2605164222430019,-8.0,-236.72429600000004
1150,38.863775942964466,-0.18233339571277618,39.13413264517639,-1.643430116688835,-8.0,-236.72429600000004
1151,38.89757053074096,-0.47348969030877963,39.167927232952884,-1.7237017700893196,-8.0,-236.72429600000004
1152,38.93136511851745,-0.37091875192044776,39.201721820729375,-1.3281107614094776,-8.0,-236.72429600000004
1153,38.96515970629394,0.07858707736648389,39.235516408505866,-0.48165391974275307,-8.0,-236.72429600000004
1154,38.99895429407043,0.666461541959628,39.26931099628236,0.5749590406999563,-8.0,-236.72429600000004
1155,39.03274888184692,1.1259764876929785,39.30310558405885,1.4889237681482952,-8.0,-236.72429600000004
1156,39.06654346962341,1.263474834848564,39.33690017183534,1.9648632283574075,-8.0,-236.72429600000004
