frame_idx,t_rppg,rppg_n,t_gt_pair,ppg_n_pair,lag_samples,lag_frames
0,9.023154936323055,-1.2719238993765272,9.090744111876036,0.9180074785321233,-2.0,-59.181073999999995
1,9.056949524099545,-1.2221028006524857,9.124538699652527,1.1744397039414465,-2.0,-59.181073999999995
2,9.090744111876036,-0.7869890574891573,9.158333287429018,1.0685110294426838,-2.0,-59.181073999999995
3,9.124538699652527,-0.039395739287819115,9.19212787520551,0.6854906161334792,-2.0,-59.181073999999995
4,9.158333287429018,0.796157221838067,9.225922462982,0.20474515406419883,-2.0,-59.181073999999995
5,9.19212787520551,1.4434518997405477,9.259717050758491,-0.21233968000329734,-2.0,-59.181073999999995
6,9.225922462982,1.706817843704394,9.293511638534982,-0.5038921376794847,-2.0,-59.181073999999995
7,9.259717050758491,1.5558011342019311,9.327306226311473,-0.7081614313655186,-2.0,-59.181073999999995
8,9.293511638534982,1.1118424426890707,9.361100814087964,-0.891195929952504,-2.0,-59.181073999999995
9,9.327306226311473,0.5501566053638018,9.394895401864455,-1.0596394383355727,-2.0,-59.181073999999995
10,9.361100814087964,-0.013194914221255946,9.428689989640946,-1.1262976745307736,-2.0,-59.181073999999995
11,9.394895401864455,-0.5688870965890263,9.462484577417436,-0.9591771573004123,-2.0,-59.181073999999995
12,9.428689989640946,-1.1646656976748824,9.496279165193927,-0.4845103239622347,-2.0,-59.181073999999995
13,9.462484577417435,-1.7998918796208827,9.530073752970416,0.2289472574307221,-2.0,-59.181073999999995
14,9.496279165193926,-2.3495468616203103,9.563868340746907,0.9708095936133365,-2.0,-59.181073999999995
15,9.530073752970416,-2.5865698627679965,9.597662928523398,1.4855267256494455,-2.0,-59.181073999999995
16,9.563868340746907,-2.3053942519178197,9.63145751629989,1.6065952909367691,-2.0,-59.181073999999995
17,9.597662928523398,-1.4729237672637652,9.66525210407638,1.3412804012723316,-2.0,-59.181073999999995
18,9.63145751629989,-0.29785406108806783,9.699046691852871,0.8514811812549473,-2.0,-59.181073999999995
19,9.66525210407638,0.8474008664674622,9.732841279629362,0.3469974198038536,-2.0,-59.181073999999995
20,9.699046691852871,1.614592100181172,9.766635867405853,-0.03585137035575775,-2.0,-59.181073999999995
21,9.732841279629362,1.8556935861281338,9.800430455182344,-0.29218367021129765,-2.0,-59.181073999999995
22,9.766635867405853,1.6735488249003858,9.834225042958835,-0.5108089253966674,-2.0,-59.181073999999995
23,9.800430455182344,1.3258174808469119,9.868019630735326,-0.7726508799061894,-2.0,-59.181073999999995
24,9.834225042958835,1.0583819498689868,9.901814218511817,-1.0589796770422542,-2.0,-59.181073999999995
25,9.868019630735326,0.9761249249707292,9.935608806288307,-1.2368448781923478,-2.0,-59.181073999999995
26,9.901814218511817,1.0175715082468932,9.969403394064798,-1.1379986154418373,-2.0,-59.181073999999995
27,9.935608806288307,1.0282018621801456,10.00319798184129,-0.6827420447331889,-2.0,-59.181073999999995
28,9.969403394064798,0.8739392606326257,10.03699256961778,0.03586772055844879,-2.0,-59.181073999999995
29,10.00319798184129,0.525591669972883,10.070787157394271,0.7715628169854719,-2.0,-59.181073999999995
30,10.03699256961778,0.0729052009447778,10.104581745170762,1.2448453255838852,-2.0,-59.181073999999995
31,10.070787157394271,-0.32856284217658493,10.138376332947253,1.290919089471384,-2.0,-59.181073999999995
32,10.104581745170762,-0.5406220322199577,10.172170920723744,0.9421961245292272,-2.0,-59.181073999999995
33,10.138376332947253,-0.5110059041524602,10.205965508500235,0.3951777706173393,-2.0,-59.181073999999995
34,10.172170920723744,-0.29572396630305553,10.239760096276726,-0.11259768507227051,-2.0,-59.181073999999995
35,10.205965508500235,-0.0250975358415371,10.273554684053217,-0.4343310451781619,-2.0,-59.181073999999995
36,10.239760096276726,0.16923219859962155,10.307349271829708,-0.5731378908304833,-2.0,-59.181073999999995
37,10.273554684053215,0.2225205342723993,10.341143859606197,-0.6384082336650421,-2.0,-59.181073999999995
38,10.307349271829706,0.15455021568224697,10.374938447382688,-0.7361811086153219,-2.0,-59.181073999999995
39,10.341143859606197,0.026633418738542438,10.408733035159178,-0.8714325739647645,-2.0,-59.181073999999995
40,10.374938447382688,-0.12391964367316802,10.44252762293567,-0.9307207075353524,-2.0,-59.181073999999995
41,10.408733035159178,-0.3166074430684727,10.47632221071216,-0.7595809893416251,-2.0,-59.181073999999995
42,10.44252762293567,-0.6013075266204826,10.510116798488651,-0.28396450262837414,-2.0,-59.181073999999995
43,10.47632221071216,-0.9940258726827291,10.543911386265142,0.40853635260617643,-2.0,-59.181073999999995
44,10.510116798488651,-1.425735613157293,10.577705974041633,1.0889165370804865,-2.0,-59.181073999999995
45,10.543911386265142,-1.748641036783238,10.611500561818124,1.5022544192715068,-2.0,-59.181073999999995
46,10.577705974041633,-1.8063944610233713,10.645295149594615,1.50598886429908,-2.0,-59.181073999999995
47,10.611500561818124,-1.5271572676697787,10.679089737371106,1.1415122057758116,-2.0,-59.181073999999995
48,10.645295149594615,-0.9752297513408414,10.712884325147597,0.595192701229013,-2.0,-59.181073999999995
49,10.679089737371106,-0.32201547192276475,10.746678912924088,0.07963083160431371,-2.0,-59.181073999999995
50,10.712884325147597,0.246426808614689,10.780473500700579,-0.283804048094851,-2.0,-59.181073999999995
51,10.746678912924088,0.6252621103908347,10.81426808847707,-0.5068871777999266,-2.0,-59.181073999999995
52,10.780473500700579,0.8306042974047244,10.84806267625356,-0.681547323822803,-2.0,-59.181073999999995
53,10.81426808847707,0.9610006896371223,10.881857264030051,-0.8765683863981941,-2.0,-59.181073999999995
54,10.84806267625356,1.1073344647975605,10.915651851806542,-1.06029066162004,-2.0,-59.181073999999995
55,10.881857264030051,1.271104599766489,10.949446439583033,-1.1061754553585175,-2.0,-59.181073999999995
56,10.915651851806542,1.3498224056335129,10.983241027359524,-0.8805264205325515,-2.0,-59.181073999999995
57,10.949446439583033,1.2077863606986239,11.017035615136015,-0.3531007958377723,-2.0,-59.181073999999995
58,10.983241027359524,0.7904713871341368,11.050830202912506,0.3485634440444646,-2.0,-59.181073999999995
59,11.017035615136015,0.20237018751908387,11.084624790688997,0.9852875886063844,-2.0,-59.181073999999995
60,11.050830202912506,-0.3158569298833234,11.118419378465488,1.328704848079596,-2.0,-59.181073999999995
61,11.084624790688995,-0.5101028789300196,11.152213966241977,1.281955514241768,-2.0,-59.181073999999995
62,11.118419378465486,-0.2628639706865712,11.186008554018468,0.920706022954577,-2.0,-59.181073999999995
63,11.152213966241977,0.3278849073785622,11.219803141794959,0.4310988080815478,-2.0,-59.181073999999995
64,11.186008554018468,0.9944494636971447,11.25359772957145,-0.009485415371071507,-2.0,-59.181073999999995
65,11.219803141794959,1.438403656329849,11.28739231734794,-0.3276360176818249,-2.0,-59.181073999999995
66,11.25359772957145,1.4736544818301693,11.321186905124431,-0.5647428936277821,-2.0,-59.181073999999995
67,11.28739231734794,1.09343352496595,11.354981492900922,-0.8031868684520341,-2.0,-59.181073999999995
68,11.321186905124431,0.4385526353940522,11.388776080677413,-1.0656493294251184,-2.0,-59.181073999999995
69,11.354981492900922,-0.2957426366557033,11.422570668453904,-1.2634758616431827,-2.0,-59.181073999999995
70,11.388776080677413,-0.9498545676338118,11.456365256230395,-1.236630494126356,-2.0,-59.181073999999995
71,11.422570668453904,-1.439172868407483,11.490159844006886,-0.8638236739051015,-2.0,-59.181073999999995
72,11.456365256230395,-1.739383541123393,11.523954431783377,-0.16889212092419872,-2.0,-59.181073999999995
73,11.490159844006886,-1.8509833621258875,11.557749019559868,0.654222293219083,-2.0,-59.181073999999995
74,11.523954431783377,-1.7793070035289362,11.557749019559868,0.654222293219083,-1.0,-29.590536999999998
75,11.557749019559868,-1.542224117287617,11.591543607336359,1.3241512878278872,-1.0,-29.590536999999998
76,11.591543607336359,-1.1907958934472174,11.62533819511285,1.6152432266516765,-1.0,-29.590536999999998
77,11.62533819511285,-0.8156453244815759,11.65913278288934,1.4706820631981838,-1.0,-29.590536999999998
78,11.65913278288934,-0.5188206589338064,11.692927370665831,1.0145491459248184,-1.0,-29.590536999999998
79,11.692927370665831,-0.35649696392261615,11.726721958442322,0.4603160744790854,-1.0,-29.590536999999998
80,11.726721958442322,-0.2891405550204294,11.760516546218813,-0.018768788642656124,-1.0,-29.590536999999998
81,11.760516546218813,-0.18564667881738345,11.794311133995304,-0.37122158566961583,-1.0,-29.590536999999998
82,11.794311133995304,0.10328815063799054,11.828105721771795,-0.6522376067981762,-1.0,-29.590536999999998
83,11.828105721771795,0.6423783998699981,11.861900309548286,-0.9315246811344189,-1.0,-29.590536999999998
84,11.861900309548286,1.3495560719282729,11.895694897324777,-1.1964941149563708,-1.0,-29.590536999999998
85,11.895694897324775,2.0186472243362905,11.929489485101266,-1.3261968751006004,-1.0,-29.590536999999998
86,11.929489485101266,2.411961522056546,11.963284072877757,-1.1616959924140409,-1.0,-29.590536999999998
87,11.963284072877757,2.366165521420595,11.997078660654248,-0.6283938830180119,-1.0,-29.590536999999998
88,11.997078660654248,1.8581251808649397,12.030873248430739,0.17652780189853767,-1.0,-29.590536999999998
89,12.030873248430739,1.010731610807813,12.06466783620723,1.0004370179516906,-1.0,-29.590536999999998
90,12.06466783620723,0.04878851022852129,12.09846242398372,1.5548504214828025,-1.0,-29.590536999999998
91,12.09846242398372,-0.7750069400316737,12.132257011760212,1.6652291328759588,-1.0,-29.590536999999998
92,12.132257011760212,-1.2632822504224928,12.166051599536702,1.3553873263963159,-1.0,-29.590536999999998
93,12.166051599536702,-1.3394958796195262,12.199846187313193,0.8149462409433972,-1.0,-29.590536999999998
94,12.199846187313193,-1.0662026067281516,12.233640775089684,0.275867584906751,-1.0,-29.590536999999998
95,12.233640775089684,-0.6057559693312606,12.774354179513537,-0.26703171336010606,-16.0,-473.44859199999996
96,12.267435362866175,-0.1454070826026501,12.808148767290028,-0.5321210294977335,-16.0,-473.44859199999996
97,12.301229950642666,0.174587653040534,12.841943355066519,-0.7298342329889402,-16.0,-473.44859199999996
98,12.335024538419157,0.30017233048643943,12.87573794284301,-0.9563170577417569,-16.0,-473.44859199999996
99,12.368819126195648,0.26046986307167447,12.9095325306195,-1.2051049636953248,-16.0,-473.44859199999996
100,12.402613713972139,0.13149093051067592,12.943327118395992,-1.3438285304097561,-16.0,-473.44859199999996
101,12.43640830174863,-0.01126063319503717,12.977121706172483,-1.1924049423423115,-16.0,-473.44859199999996
102,12.47020288952512,-0.1264978019279476,13.010916293948974,-0.6546637353757293,-16.0,-473.44859199999996
103,12.503997477301612,-0.21371043079635652,13.044710881725464,0.18515467607989267,-16.0,-473.44859199999996
104,12.537792065078103,-0.295780102329892,13.078505469501955,1.0721919785085503,-16.0,-473.44859199999996
105,12.571586652854593,-0.3915854298368592,13.112300057278446,1.7002723229535819,-16.0,-473.44859199999996
106,12.605381240631084,-0.4948122850057522,13.146094645054937,1.869696835212986,-16.0,-473.44859199999996
107,12.639175828407575,-0.569692546099637,13.179889232831428,1.5846566103814734,-16.0,-473.44859199999996
108,12.672970416184066,-0.563074643402481,13.213683820607919,1.0309510611466606,-16.0,-473.44859199999996
109,12.706765003960557,-0.424151173697357,13.24747840838441,0.45348636778186296,-16.0,-473.44859199999996
110,12.740559591737046,-0.12548834069914772,13.281272996160899,0.015728852685851502,-16.0,-473.44859199999996
111,12.774354179513537,0.3158901180753056,13.31506758393739,-0.27064430832775416,-16.0,-473.44859199999996
112,12.808148767290028,0.8224052382829341,13.348862171713881,-0.5078689487629824,-16.0,-473.44859199999996
113,12.841943355066519,1.2586846912822611,13.382656759490372,-0.7989794310747418,-16.0,-473.44859199999996
114,12.87573794284301,1.4652938629232184,13.416451347266863,-1.1396448502733934,-16.0,-473.44859199999996
115,12.9095325306195,1.3182211716909222,13.450245935043354,-1.3909790172571799,-16.0,-473.44859199999996
116,12.943327118395992,0.7897710614565066,12.774354179513537,-0.26703171336010606,5.0,147.95268499999997
117,12.977121706172483,-0.01886840512275788,12.503997477301612,-0.8476280716627592,14.0,414.267518
118,13.010916293948974,-0.8933930218242765,12.537792065078103,-0.044601699642631894,14.0,414.267518
119,13.044710881725464,-1.5729835607654472,12.571586652854593,0.8152139208615133,14.0,414.267518
120,13.078505469501955,-1.8490420453509804,12.605381240631084,1.4233412054346484,14.0,414.267518
121,13.112300057278446,-1.6558505338377554,12.639175828407575,1.5796423978709757,14.0,414.267518
122,13.146094645054937,-1.1041472616908201,12.672970416184066,1.2881405012159526,14.0,414.267518
123,13.179889232831428,-0.4302566539447352,12.706765003960557,0.7336878095034872,14.0,414.267518
124,13.213683820607919,0.11785879876839139,13.24747840838441,0.45348636778186296,-1.0,-29.590536999999998
125,13.24747840838441,0.3960460659655577,13.2812729961609,0.015728852685828472,-1.0,-29.590536999999998
126,13.2812729961609,0.42116766279445605,13.315067583937392,-0.2706443083277692,-1.0,-29.590536999999998
127,13.315067583937392,0.3469496618533253,13.348862171713883,-0.5078689487629948,-1.0,-29.590536999999998
128,13.348862171713883,0.37392354761759783,13.382656759490374,-0.7989794310747571,-1.0,-29.590536999999998
129,13.382656759490374,0.6329189544787024,13.416451347266865,-1.1396448502734113,-1.0,-29.590536999999998
130,13.416451347266865,1.0944360754149547,13.450245935043355,-1.390979017257193,-1.0,-29.590536999999998
131,13.450245935043355,1.5548506707876226,13.484040522819846,-1.356863001578228,-1.0,-29.590536999999998
132,13.484040522819846,1.7223835691439844,14.0247539272437,-0.9776137200533777,-16.0,-473.44859199999996
133,13.517835110596337,1.3735946883284873,14.05854851502019,-0.16392973679555406,-16.0,-473.44859199999996
134,13.551629698372826,0.5020934690545287,13.585424286149317,0.7171188027803042,-1.0,-29.590536999999998
135,13.585424286149317,-0.6310887635897086,13.619218873925808,1.3548915882574073,-1.0,-29.590536999999998
136,13.619218873925808,-1.59419838005436,13.619218873925808,1.3548915882574073,0.0,0.0
137,13.6530134617023,-1.9938264061856634,13.6530134617023,1.5509677619578326,0.0,0.0
138,13.68680804947879,-1.6829631850610645,13.68680804947879,1.2929447320712721,0.0,0.0
139,13.720602637255281,-0.8413126854609644,13.720602637255281,0.758339509074367,0.0,0.0
140,13.754397225031772,0.12465515704507214,13.754397225031772,0.19385083820416893,0.0,0.0
141,13.788191812808263,0.8015043908413587,13.788191812808263,-0.2294246025816186,0.0,0.0
142,13.821986400584754,0.9765460201533386,13.821986400584754,-0.4928407191214376,0.0,0.0
143,13.855780988361245,0.7151189435740923,13.855780988361245,-0.6970843654293215,0.0,0.0
144,13.889575576137736,0.2734620790993134,13.889575576137736,-0.9500300815837202,0.0,0.0
145,13.923370163914226,-0.08472148197856605,13.923370163914226,-1.2557780462257204,0.0,0.0
146,13.957164751690717,-0.24413850675691265,13.957164751690717,-1.4821769583602988,0.0,0.0
147,13.990959339467208,-0.26982468805162085,13.990959339467208,-1.4324315838541144,0.0,0.0
148,14.0247539272437,-0.30803457699326914,14.0247539272437,-0.9776137200533777,0.0,0.0
149,14.05854851502019,-0.43686555888157913,14.092343102796681,0.779218209171456,-1.0,-29.590536999999998
150,14.092343102796681,-0.5787349952880212,14.092343102796681,0.779218209171456,0.0,0.0
151,14.126137690573172,-0.5444484297678214,14.126137690573172,1.5420921015381037,0.0,0.0
152,14.159932278349663,-0.18468912966682904,14.193726866126154,1.7642360169179778,-1.0,-29.590536999999998
153,14.193726866126154,0.46236880716432704,14.227521453902645,1.3048193680998974,-1.0,-29.590536999999998
154,14.227521453902645,1.1487075663645085,15.275153674973861,0.5142566463263959,-31.0,-917.3066469999999
155,14.261316041679136,1.550883358315759,15.61309955273877,0.8120197717065727,-40.0,-1183.6214799999998
156,14.295110629455626,1.4683571004339384,15.646894140515261,1.444182485039833,-40.0,-1183.6214799999998
157,14.328905217232117,0.9415508310209983,15.680688728291752,1.6865932321168537,-40.0,-1183.6214799999998
158,14.362699805008607,0.21163114481727108,15.71448331606824,1.5070268994064215,-40.0,-1183.6214799999998
159,14.396494392785097,-0.4352528603082951,15.74827790384473,1.0348223811286503,-40.0,-1183.6214799999998
160,14.430288980561588,-0.8233877972550809,15.782072491621221,0.4626201695629747,-40.0,-1183.6214799999998
161,14.46408356833808,-0.9477831832348363,15.815867079397712,-0.06770467194490531,-40.0,-1183.6214799999998
162,14.49787815611457,-0.925385558365332,15.849661667174203,-0.5192666236018407,-40.0,-1183.6214799999998
163,14.531672743891061,-0.8930682026770073,15.883456254950694,-0.9265676332612847,-40.0,-1183.6214799999998
164,14.565467331667552,-0.9230103495931491,15.917250842727185,-1.308832165974405,-40.0,-1183.6214799999998
165,14.599261919444043,-0.9950372209418167,15.951045430503676,-1.601177858035406,-40.0,-1183.6214799999998
166,14.633056507220534,-1.0248755936890248,15.984840018280167,-1.661307986025737,-40.0,-1183.6214799999998
167,14.666851094997025,-0.9219262194506476,16.018634606056658,-1.3554861142446237,-40.0,-1183.6214799999998
168,14.700645682773516,-0.6434604840687089,16.255196720492094,0.8266745301640617,-46.0,-1361.1647019999998
169,14.734440270550007,-0.21883198095982062,16.288991308268585,0.2867426902468662,-46.0,-1361.1647019999998
170,14.768234858326498,0.26617489299760394,16.322785896045076,-0.14250053523716108,-46.0,-1361.1647019999998
171,14.802029446102988,0.7125777261241499,16.356580483821567,-0.4740482614761203,-46.0,-1361.1647019999998
172,14.83582403387948,1.0506794671413136,16.390375071598058,-0.780810148020768,-46.0,-1361.1647019999998
173,14.86961862165597,1.2571028850193822,16.42416965937455,-1.0939757079616146,-46.0,-1361.1647019999998
174,14.903413209432461,1.3428070518683455,14.937207797208952,-1.3582683044725392,-1.0,-29.590536999999998
175,14.937207797208952,1.3275781425897737,14.971002384985443,-1.6138588022749083,-1.0,-29.590536999999998
176,14.971002384985443,1.2199810252497039,15.004796972761934,-1.5695142519925036,-1.0,-29.590536999999998
177,15.004796972761934,1.0148384885396298,15.038591560538425,-1.1009821447717323,-1.0,-29.590536999999998
178,15.038591560538425,0.7103226374521344,15.072386148314916,-0.26659555784937045,-1.0,-29.590536999999998
179,15.072386148314916,0.3334299521273856,15.106180736091407,0.6882754744891606,-1.0,-29.590536999999998
180,15.106180736091407,-0.04881971225877306,15.139975323867898,1.4413665429956661,-1.0,-29.590536999999998
181,15.139975323867898,-0.3508021314583738,15.173769911644388,1.7543508703580035,-1.0,-29.590536999999998
182,15.173769911644387,-0.5167073349742648,15.207564499420878,1.5861633021308896,-1.0,-29.590536999999998
183,15.207564499420878,-0.5629113840403724,15.241359087197369,1.091818592948286,-1.0,-29.590536999999998
184,15.241359087197369,-0.5749732816392906,15.27515367497386,0.5142566463264207,-1.0,-29.590536999999998
185,15.27515367497386,-0.6477871071023718,15.30894826275035,0.04292917499688976,-1.0,-29.590536999999998
186,15.30894826275035,-0.8045334903965079,15.342742850526841,-0.272010656556698,-1.0,-29.590536999999998
187,15.342742850526841,-0.9576081376450353,15.376537438303332,-0.5028240194315919,-1.0,-29.590536999999998
188,15.376537438303332,-0.9527783398596932,15.410332026079823,-0.7460297018248943,-1.0,-29.590536999999998
189,15.410332026079823,-0.6767474983933416,15.444126613856314,-1.0158549947744293,-1.0,-29.590536999999998
190,15.444126613856314,-0.15388628449238184,15.477921201632805,-1.2055806908759887,-1.0,-29.590536999999998
191,15.477921201632805,0.4427198481075178,15.511715789409296,-1.1469532524434374,-1.0,-29.590536999999998
192,15.511715789409296,0.8797880047857635,15.545510377185787,-0.7307261213978938,-1.0,-29.590536999999998
193,15.545510377185787,0.991157383149152,15.579304964962278,-0.006334081849960157,-1.0,-29.590536999999998
194,15.579304964962278,0.758314941392728,15.613099552738769,0.8120197717065395,-1.0,-29.590536999999998
195,15.613099552738769,0.2989935489042096,15.64689414051526,1.4441824850398204,-1.0,-29.590536999999998
196,15.64689414051526,-0.21555859575825426,15.68068872829175,1.6865932321168633,-1.0,-29.590536999999998
197,15.68068872829175,-0.6512721896090605,15.714483316068241,1.507026899406412,-1.0,-29.590536999999998
198,15.714483316068241,-0.9506287749211165,15.748277903844732,1.0348223811286255,-1.0,-29.590536999999998
199,15.748277903844732,-1.1076074004064211,15.782072491621223,0.46262016956294466,-1.0,-29.590536999999998
200,15.782072491621223,-1.1186050629106392,15.815867079397714,-0.06770467194493313,-1.0,-29.590536999999998
201,15.815867079397714,-0.963502770375765,15.849661667174205,-0.5192666236018645,-1.0,-29.590536999999998
202,15.849661667174205,-0.6327035616403988,15.883456254950696,-0.9265676332613061,-1.0,-29.590536999999998
203,15.883456254950696,-0.16775664443582033,15.917250842727187,-1.308832165974425,-1.0,-29.590536999999998
204,15.917250842727187,0.32631724759439623,15.951045430503678,-1.6011778580354212,-1.0,-29.590536999999998
205,15.951045430503678,0.7107369843145097,15.984840018280169,-1.66130798602574,-1.0,-29.590536999999998
206,15.984840018280169,0.8695714478517561,16.018634606056658,-1.3554861142446237,-1.0,-29.590536999999998
207,16.018634606056658,0.7683168017681755,16.05242919383315,-0.6681397816894612,-1.0,-29.590536999999998
208,16.05242919383315,0.48888665644344453,16.08622378160964,0.24417214476442625,-1.0,-29.590536999999998
209,16.08622378160964,0.21533592263824855,16.12001836938613,1.1016343681863374,-1.0,-29.590536999999998
210,16.12001836938613,0.1568729000286076,16.15381295716262,1.631352448257597,-1.0,-29.590536999999998
211,16.15381295716262,0.43148984343701674,16.187607544939112,1.7000388617740636,-1.0,-29.590536999999998
212,16.187607544939112,0.9758178014187405,16.221402132715603,1.3668081138919577,-1.0,-29.590536999999998
213,16.221402132715603,1.5508837582162174,16.255196720492094,0.8266745301640617,-1.0,-29.590536999999998
214,16.255196720492094,1.8588268062190596,16.288991308268585,0.2867426902468662,-1.0,-29.590536999999998
215,16.288991308268585,1.7067026723723981,16.322785896045076,-0.14250053523716108,-1.0,-29.590536999999998
216,16.322785896045076,1.1132916819500172,16.356580483821567,-0.4740482614761203,-1.0,-29.590536999999998
217,16.356580483821567,0.28936004683843075,16.390375071598058,-0.780810148020768,-1.0,-29.590536999999998
218,16.390375071598058,-0.4909404987558695,16.42416965937455,-1.0939757079616146,-1.0,-29.590536999999998
219,16.42416965937455,-1.0357788796850795,16.45796424715104,-1.3401942735797934,-1.0,-29.590536999999998
220,16.45796424715104,-1.3045335822998827,16.49175883492753,-1.3672703007419844,-1.0,-29.590536999999998
221,16.49175883492753,-1.3740171867087592,16.52555342270402,-1.046214019746199,-1.0,-29.590536999999998
222,16.52555342270402,-1.3508697484799075,16.559348010480512,-0.3811082997546437,-1.0,-29.590536999999998
223,16.559348010480512,-1.2989976602802649,16.593142598257003,0.45317339639492027,-1.0,-29.590536999999998
224,16.593142598257003,-1.2175030456057914,16.626937186033494,1.1802188686824342,-1.0,-29.590536999999998
225,16.626937186033494,-1.0636913318250256,16.660731773809985,1.5600423313025107,-1.0,-29.590536999999998
226,16.660731773809985,-0.7968109126708042,16.694526361586476,1.5086351134173215,-1.0,-29.590536999999998
227,16.694526361586476,-0.4168830828425323,16.728320949362967,1.1239285767664424,-1.0,-29.590536999999998
228,16.728320949362967,0.020445498074415175,16.762115537139458,0.6070625346276597,-1.0,-29.590536999999998
229,16.762115537139458,0.4203687366600716,16.79591012491595,0.13692369754204858,-1.0,-29.590536999999998
230,16.79591012491595,0.6889021693525313,16.82970471269244,-0.21795628906014616,-1.0,-29.590536999999998
231,16.82970471269244,0.7741391025035069,16.86349930046893,-0.49746074910611743,-1.0,-29.590536999999998
232,16.86349930046893,0.6839156605750858,16.89729388824542,-0.7695072917723799,-1.0,-29.590536999999998
233,16.89729388824542,0.4726686433687792,16.931088476021912,-1.0361608478401747,-1.0,-29.590536999999998
234,16.931088476021912,0.2133785598574512,16.964883063798403,-1.199003622526602,-1.0,-29.590536999999998
235,16.964883063798403,-0.02515531520931947,16.998677651574894,-1.1140057433195578,-1.0,-29.590536999999998
236,16.998677651574894,-0.18942035198919563,17.032472239351385,-1.1140057433195578,-1.0,-29.590536999999998
