frame_idx,t_rppg,rppg_n,t_gt_pair,ppg_n_pair,lag_samples,lag_frames
0,0.0,-0.05847004189077413,-0.06778402072374422,-0.018461169541723412,2.0,59.010958
1,0.03389201036187211,-0.05929457617882907,-0.03389201036187211,-0.018461169541723412,2.0,59.010958
2,0.06778402072374422,0.03618568777867901,0.0,-0.018461169541723412,2.0,59.010958
3,0.10167603108561633,0.2717906226522267,0.033892010361872116,-0.22736306844817816,2.0,59.010958
4,0.13556804144748844,0.6146395545523246,0.06778402072374422,-0.22005086112499947,2.0,59.010958
5,0.16946005180936055,0.9699703580117985,0.10167603108561633,0.09652119423052243,2.0,59.010958
6,0.20335206217123267,1.2249415898363802,0.13556804144748846,0.6387234885730135,2.0,59.010958
7,0.23724407253310478,1.2987744506671943,0.16946005180936058,1.190599224395721,2.0,59.010958
8,0.27113608289497687,1.1762396677934879,0.20335206217123264,1.519590544923275,2.0,59.010958
9,0.305028093256849,0.9096028364908936,0.23724407253310476,1.4963368250469027,2.0,59.010958
10,0.3389201036187211,0.5880318126068829,0.27113608289497687,1.1518996627790183,2.0,59.010958
11,0.3728121139805932,0.2894822450804183,0.305028093256849,0.6460725002999755,2.0,59.010958
12,0.40670412434246533,0.04007256549159665,0.3389201036187211,0.1729224253137174,2.0,59.010958
13,0.44059613470433745,-0.19635674192590838,0.3728121139805932,-0.1387427839849627,2.0,59.010958
14,0.47448814506620957,-0.48928705434690234,0.40670412434246533,-0.2770340905071153,2.0,59.010958
15,0.5083801554280817,-0.8833817982448711,0.44059613470433745,-0.3299293414499085,2.0,59.010958
16,0.5422721657899537,-1.3407498997875937,0.4744881450662095,-0.4162196520735849,2.0,59.010958
17,0.5761641761518259,-1.7235756301287362,0.5083801554280817,-0.605034503218511,2.0,59.010958
18,0.610056186513698,-1.8450335897406163,0.5422721657899537,-0.8666865014706935,2.0,59.010958
19,0.6439481968755701,-1.5749030859294963,0.5761641761518259,-1.080424128777869,2.0,59.010958
20,0.6778402072374422,-0.9360707918402984,0.610056186513698,-1.0966104313943241,2.0,59.010958
21,0.7117322175993144,-0.1163320412778895,0.6439481968755701,-0.8229393399445835,2.0,59.010958
22,0.7456242279611864,0.6261915831583842,0.6778402072374422,-0.2888465688834321,2.0,59.010958
23,0.7795162383230585,1.1027283011978846,0.7117322175993143,0.3505460827938164,2.0,59.010958
24,0.8134082486849307,1.2799713228001792,0.7456242279611864,0.8789874257311031,2.0,59.010958
25,0.8473002590468027,1.2580511687455938,0.7795162383230585,1.1205421719361839,2.0,59.010958
26,0.8811922694086749,1.1703579948215754,0.8134082486849307,1.0222519598502553,2.0,59.010958
27,0.915084279770547,1.086532509396795,0.8473002590468027,0.6716821184756948,2.0,59.010958
28,0.9489762901324191,0.9825044755662474,0.8811922694086749,0.24132725329863128,2.0,59.010958
29,0.9828683004942912,0.7818873212304096,0.915084279770547,-0.10576454588978887,2.0,59.010958
30,1.0167603108561634,0.42575002457862143,0.9489762901324191,-0.294895158343368,2.0,59.010958
31,1.0506523212180354,-0.07595295609910305,0.9828683004942912,-0.36136200281475683,2.0,59.010958
32,1.0845443315799075,-0.632032700863919,1.0167603108561634,-0.4075273229894718,2.0,59.010958
33,1.1184363419417795,-1.09494570825806,1.0506523212180354,-0.5236563398046022,2.0,59.010958
34,1.1523283523036518,-1.3133787681260813,1.0845443315799077,-0.7193296508165357,2.0,59.010958
35,1.1862203626655239,-1.1968657445220792,1.1184363419417798,-0.9055404992937495,2.0,59.010958
36,1.220112373027396,-0.765062671106771,1.1523283523036518,-0.9398697592040088,2.0,59.010958
37,1.254004383389268,-0.1511811912146861,1.1862203626655239,-0.711797675566,2.0,59.010958
38,1.2878963937511403,0.4506067302263474,1.2201123730273962,-0.2200718401557236,2.0,59.010958
39,1.3217884041130123,0.8689005123618762,1.2540043833892682,0.405579997556486,2.0,59.010958
40,1.3556804144748844,1.0231925450023338,1.2878963937511403,0.9565268256265486,2.0,59.010958
41,1.3895724248367565,0.940166764820853,1.3217884041130123,1.2451130535430113,2.0,59.010958
42,1.4234644351986288,0.7160076457120823,1.3556804144748846,1.1956225309692956,2.0,59.010958
43,1.4573564455605008,0.45333090386468927,1.3895724248367567,0.874314151422081,2.0,59.010958
44,1.4912484559223729,0.20952652696426174,1.4234644351986288,0.4441121086797792,2.0,59.010958
45,1.525140466284245,-0.019970070471132764,1.4573564455605008,0.07401355740228166,2.0,59.010958
46,1.559032476646117,-0.2811095248231247,1.4912484559223729,-0.14376472839649462,2.0,59.010958
47,1.5929244870079893,-0.6180188528489374,1.5251404662842452,-0.22529752756915855,2.0,59.010958
48,1.6268164973698613,-1.0295127646342657,1.5590324766461172,-0.26343086358479195,2.0,59.010958
49,1.6607085077317334,-1.446194917974969,1.5929244870079893,-0.3559437560101011,2.0,59.010958
50,1.6946005180936055,-1.7411923942066996,1.6268164973698613,-0.5355163116524684,2.0,59.010958
51,1.7284925284554777,-1.775238370682497,1.6607085077317336,-0.7405924277072711,2.0,59.010958
52,1.7623845388173498,-1.4609281613114693,1.6946005180936057,-0.8440871746520732,2.0,59.010958
53,1.7962765491792219,-0.8174772618632773,1.7284925284554777,-0.7262143127814725,2.0,59.010958
54,1.830168559541094,0.013736239422355228,1.7623845388173498,-0.35234303247801474,2.0,59.010958
55,1.864060569902966,0.8075446654644245,1.7962765491792219,0.1897281385843288,2.0,59.010958
56,1.8979525802648383,1.3378210243327904,1.8301685595410941,0.7193162137347464,2.0,59.010958
57,1.9318445906267103,1.47210676514337,1.8640605699029662,1.0473684927181393,2.0,59.010958
58,1.9657366009885824,1.2324611949055502,1.8979525802648383,1.0694450269496782,2.0,59.010958
59,1.9996286113504544,0.7851429912766058,1.9318445906267103,0.8134912735499851,2.0,59.010958
60,2.0335206217123267,0.35662532760911475,1.9657366009885826,0.4158221720570719,2.0,59.010958
61,2.067412632074199,0.11962245440911938,1.9996286113504547,0.042253074822776904,2.0,59.010958
62,2.101304642436071,0.11540791232139826,2.0335206217123267,-0.1978331999646656,2.0,59.010958
63,2.135196652797943,0.2544764738262768,2.067412632074199,-0.2966104760816204,2.0,59.010958
64,2.169088663159815,0.3841334909913621,2.101304642436071,-0.3312664119492742,2.0,59.010958
65,2.202980673521687,0.3737879778979918,2.135196652797943,-0.4003391678504752,2.0,59.010958
66,2.236872683883559,0.17304423891919923,2.745252839311641,-0.505186081867625,-15.0,-442.58218500000004
67,2.2707646942454316,-0.1723562511970296,2.7791448496735134,-0.7121315354098482,-15.0,-442.58218500000004
68,2.3046567046073037,-0.5406199430032279,2.7791448496735134,-0.7121315354098482,-14.0,-413.076706
69,2.3385487149691757,-0.7819708581569578,2.8130368600353854,-0.7923434104752793,-14.0,-413.076706
70,2.3724407253310478,-0.7840115701788777,2.8469288703972575,-0.6382509895286548,-14.0,-413.076706
71,2.40633273569292,-0.5282371542871265,2.8808208807591296,-0.23924549427930508,-14.0,-413.076706
72,2.440224746054792,-0.10292583136760107,2.9147128911210016,0.29714030739853947,-14.0,-413.076706
73,2.474116756416664,0.3422144057891112,2.9486049014828737,0.7880696857935967,-14.0,-413.076706
74,2.508008766778536,0.6761224633703959,2.9824969118447457,1.062579591424812,-14.0,-413.076706
75,2.5419007771404085,0.8532956963718826,3.016388922206618,1.0448948758543086,-14.0,-413.076706
76,2.5757927875022806,0.9268811364611093,3.05028093256849,0.7859098000096394,-14.0,-413.076706
77,2.6096847978641526,0.9988292383986171,3.084172942930362,0.42581464577009037,-14.0,-413.076706
78,2.6435768082260247,1.1348514214165306,3.118064953292234,0.11224317311352726,-14.0,-413.076706
79,2.6774688185878968,1.2960428951342988,3.151956963654106,-0.07692952754437636,-14.0,-413.076706
80,2.711360828949769,1.3365133259551,3.185848974015978,-0.16284907848231833,-14.0,-413.076706
81,2.745252839311641,1.0821116879022181,2.6774688185878968,-0.20952565190959513,2.0,59.010958
82,2.779144849673513,0.45242755512487093,3.2536329947397222,-0.37377551567191025,-14.0,-413.076706
83,2.813036860035385,-0.4507619648643638,3.2875250051015943,-0.5958793166772859,-14.0,-413.076706
84,2.8469288703972575,-1.3566595795377119,3.3214170154634672,-0.8196109447071624,-14.0,-413.076706
85,2.8808208807591296,-1.9469458198632685,3.3553090258253393,-0.9096808472241682,-14.0,-413.076706
86,2.9147128911210016,-2.0183706557811023,3.3892010361872114,-0.7560710307462014,-14.0,-413.076706
87,2.9486049014828737,-1.5894070662880238,3.1180649532922344,0.11224317311352477,-5.0,-147.527395
88,2.9824969118447457,-0.8900003030823338,3.1519569636541065,-0.07692952754437885,-5.0,-147.527395
89,3.016388922206618,-0.24545028620227016,3.4908770672728275,0.686755786311096,-14.0,-413.076706
90,3.05028093256849,0.07599435455602221,2.9824969118447457,1.062579591424812,2.0,59.010958
91,3.084172942930362,-0.030110049241113306,3.016388922206618,1.0448948758543086,2.0,59.010958
92,3.118064953292234,-0.48922765979302335,3.5925530983584437,0.6509582371832185,-14.0,-413.076706
93,3.1519569636541065,-1.1126888978864231,3.626445108720316,0.2887978717599218,-14.0,-413.076706
94,3.1858489740159786,-1.6911562159355966,3.660337119082188,-0.02021612554476519,-14.0,-413.076706
95,3.2197409843778506,-2.0659171840523225,3.69422912944406,-0.2035609612201894,-14.0,-413.076706
96,3.2536329947397227,-2.1575371864813704,3.728121139805932,-0.2852012150229479,-14.0,-413.076706
97,3.2875250051015947,-1.9602882124466479,3.762013150167804,-0.34931129357585206,-14.0,-413.076706
98,3.321417015463467,-1.5188894397560104,3.795905160529676,-0.4703564486487788,-14.0,-413.076706
99,3.355309025825339,-0.8995142924213981,3.829797170891548,-0.652517632747752,-14.0,-413.076706
100,3.389201036187211,-0.16560826623211058,3.86368918125342,-0.8147759461910371,-14.0,-413.076706
101,3.423093046549083,0.6305111369385974,3.8975811916152923,-0.8321741392177998,-14.0,-413.076706
102,3.4569850569109555,1.4383370581924724,3.931473201977165,-0.6118362902034945,-14.0,-413.076706
103,3.4908770672728275,2.1950956268705424,3.9653652123390373,-0.16029642151511778,-14.0,-413.076706
104,3.5247690776346996,2.8236841422522283,3.9992572227009093,0.4001391926542757,-14.0,-413.076706
105,3.5586610879965717,3.2478260818614095,4.033149233062781,0.8809869060890458,-14.0,-413.076706
106,3.5925530983584437,3.4157405948314676,4.0670412434246535,1.1183479978439395,-14.0,-413.076706
107,3.626445108720316,3.3180341779183506,4.1009332537865255,1.053090059173026,-14.0,-413.076706
108,3.660337119082188,2.9890144830323737,4.134825264148398,0.7540383315901545,-14.0,-413.076706
109,3.69422912944406,2.49045303409878,4.16871727451027,0.37262518517800264,-14.0,-413.076706
110,3.728121139805932,1.8864095726556802,4.202609284872142,0.058167105539813406,-14.0,-413.076706
111,3.7620131501678045,1.2202475533939598,4.236501295234014,-0.11649507717392091,-14.0,-413.076706
112,3.7959051605296765,0.5034458223443632,3.1519569636541065,-0.07692952754437885,19.0,560.604101
113,3.8297971708915486,-0.2739482174002298,3.1858489740159786,-0.16284907848231944,19.0,560.604101
114,3.8636891812534206,-1.1068220735529803,3.2197409843778506,-0.2337502376000655,19.0,560.604101
115,3.8975811916152927,-1.9292996979058163,3.2536329947397227,-0.3737755156719121,19.0,560.604101
116,3.9314732019771648,-2.5995124257420845,3.2875250051015947,-0.5958793166772888,19.0,560.604101
117,3.965365212339037,-2.945984276942417,3.321417015463467,-0.8196109447071612,19.0,560.604101
118,3.999257222700909,-2.8590146983833704,3.355309025825339,-0.9096808472241702,19.0,560.604101
119,4.033149233062781,-2.3641207783024423,3.3892010361872114,-0.7560710307462014,19.0,560.604101
120,4.0670412434246535,-1.6198757936330515,3.4230930465490834,-0.3495409697137439,19.0,560.604101
121,4.1009332537865255,-0.8397953594288519,3.4569850569109555,0.1950943108883928,19.0,560.604101
122,4.134825264148398,-0.19468544281677522,3.4908770672728275,0.686755786311096,19.0,560.604101
123,4.16871727451027,0.24089743637037084,3.5247690776346996,0.9520296432975376,19.0,560.604101
124,4.202609284872142,0.47598428368691087,3.5586610879965717,0.9203596707463871,19.0,560.604101
125,4.236501295234014,0.5517932437499606,4.677097429938351,0.7465255827796919,-13.0,-383.571227
126,4.270393305595886,0.49782680057464,4.7109894403002235,0.33711263158418675,-13.0,-383.571227
127,4.304285315957758,0.32337659574509886,4.7448814506620955,-0.029377652212829796,-13.0,-383.571227
128,4.33817732631963,0.039888426465316235,4.778773461023968,-0.2515744142706207,-13.0,-383.571227
129,4.372069336681502,-0.31165527417712907,4.81266547138584,-0.3299616168817981,-13.0,-383.571227
130,4.405961347043374,-0.6547033475314469,4.846557481747712,-0.34828594127996276,-13.0,-383.571227
131,4.439853357405246,-0.9012760197388121,4.880449492109584,-0.4107784654189519,-13.0,-383.571227
132,4.473745367767118,-0.9901532665190897,4.914341502471456,-0.5709455391043843,-13.0,-383.571227
133,4.507637378128991,-0.9093679337592876,4.948233512833329,-0.7904673402633637,-13.0,-383.571227
134,4.541529388490863,-0.6851408503110068,4.982125523195201,-0.9514678835963828,-13.0,-383.571227
135,4.575421398852735,-0.3492008626168401,5.016017533557073,-0.9186416176692068,-13.0,-383.571227
136,4.609313409214607,0.08190862559246091,5.049909543918945,-0.6202962708827606,-13.0,-383.571227
137,4.643205419576479,0.5910536802342026,3.9992572227009093,0.4001391926542757,19.0,560.604101
138,4.677097429938351,1.1208976891750106,4.033149233062781,0.8809869060890458,19.0,560.604101
139,4.7109894403002235,1.5549367129957754,4.0670412434246535,1.1183479978439395,19.0,560.604101
140,4.7448814506620955,1.7541124463583326,4.1009332537865255,1.053090059173026,19.0,560.604101
141,4.778773461023968,1.635245955981556,5.219369595728305,0.9478594492688102,-13.0,-383.571227
142,4.81266547138584,1.2335268180515022,5.253261606090177,0.6193601034965965,-13.0,-383.571227
143,4.846557481747712,0.6946004060549235,4.202609284872142,0.058167105539813406,19.0,560.604101
144,4.880449492109584,0.1938925864305269,4.236501295234014,-0.11649507717392091,19.0,560.604101
145,4.914341502471456,-0.16039023194426302,4.270393305595886,-0.1790183584113102,19.0,560.604101
146,4.948233512833328,-0.3698781644191665,4.304285315957758,-0.22216382606603774,19.0,560.604101
147,4.9821255231952,-0.5077719122544887,4.33817732631963,-0.33285491847448945,19.0,560.604101
148,5.016017533557072,-0.6368412415212819,4.372069336681502,-0.5275500409668089,19.0,560.604101
149,5.049909543918944,-0.7495112253659059,5.490505678623282,-0.606577615910488,-13.0,-383.571227
150,5.083801554280817,-0.7719237602721482,5.524397688985155,-0.6513877149934911,-13.0,-383.571227
151,5.117693564642689,-0.6243429303978857,4.7109894403002235,0.33711263158418675,12.0,354.065748
152,5.151585575004561,-0.2924714060074088,4.7448814506620955,-0.029377652212829796,12.0,354.065748
153,5.185477585366433,0.1413354911693923,4.778773461023968,-0.2515744142706207,12.0,354.065748
154,5.219369595728305,0.5309608161003067,4.81266547138584,-0.3299616168817981,12.0,354.065748
155,5.253261606090177,0.7449694483758369,4.846557481747712,-0.34828594127996276,12.0,354.065748
156,5.287153616452049,0.7409335035903959,5.422721657899538,-0.33048302127825957,-4.0,-118.021916
157,5.3210456268139215,0.5864638812338399,5.45661366826141,-0.46464678592845066,-4.0,-118.021916
158,5.3549376371757935,0.4101320569374119,5.490505678623282,-0.606577615910488,-4.0,-118.021916
159,5.388829647537666,0.3107232648360785,5.287153616452049,0.25461286220734936,3.0,88.516437
160,5.422721657899538,0.28365286052826005,5.3210456268139215,-0.02025577682384164,3.0,88.516437
161,5.45661366826141,0.21750444586597092,5.3549376371757935,-0.16969297970020988,3.0,88.516437
162,5.490505678623282,-0.028792837128632027,5.388829647537666,-0.24566202366278228,3.0,88.516437
163,5.524397688985154,-0.5122783043313328,5.422721657899538,-0.33048302127825957,3.0,88.516437
164,5.558289699347026,-1.131328436182183,5.693857740794514,1.0405639293519058,-4.0,-118.021916
165,5.592181709708898,-1.6490076344196256,5.727749751156386,0.9887071664587415,-4.0,-118.021916
166,5.62607372007077,-1.8123083784443625,5.761641761518258,0.7046934302123715,-4.0,-118.021916
167,5.659965730432642,-1.4972849253306106,5.79553377188013,0.32874930367676425,-4.0,-118.021916
168,5.693857740794515,-0.7863004665866491,5.829425782242003,0.006887878747683525,-4.0,-118.021916
169,5.727749751156387,0.07330037668462562,5.863317792603875,-0.18648068119754097,-4.0,-118.021916
170,5.761641761518259,0.8002754508645359,5.863317792603875,-0.18648068119754097,-3.0,-88.516437
171,5.795533771880131,1.215575408087112,5.897209802965747,-0.2770509396707523,-3.0,-88.516437
172,5.829425782242003,1.3040113533320687,5.931101813327619,-0.3564606487870511,-3.0,-88.516437
173,5.863317792603875,1.176834122428454,5.9988858340513636,-0.739327994282039,-4.0,-118.021916
174,5.897209802965747,0.9725030266385619,5.9988858340513636,-0.739327994282039,-3.0,-88.516437
175,5.931101813327619,0.7644584136414292,6.032777844413236,-0.9600182354849482,-3.0,-88.516437
176,5.9649938236894915,0.5319737477920318,6.066669854775108,-1.0276723299831572,-3.0,-88.516437
177,5.9988858340513636,0.20507963550300004,6.10056186513698,-0.8322222400227453,-3.0,-88.516437
178,6.032777844413236,-0.2532185211164458,5.62607372007077,0.36305104270799415,12.0,354.065748
179,6.066669854775108,-0.7853605053468325,5.659965730432642,0.8078897161741027,12.0,354.065748
180,6.10056186513698,-1.2405966818027496,5.9988858340513636,-0.739327994282039,3.0,88.516437
181,6.134453875498852,-1.4420854936414433,6.032777844413236,-0.9600182354849482,3.0,88.516437
182,6.168345885860724,-1.2827523058158237,6.066669854775108,-1.0276723299831572,3.0,88.516437
183,6.202237896222596,-0.7937517679188583,6.10056186513698,-0.8322222400227453,3.0,88.516437
184,6.236129906584468,-0.14168191263387722,6.134453875498852,-0.3733974766616182,3.0,88.516437
185,6.27002191694634,0.4492795164952397,6.168345885860724,0.2195900275591184,3.0,88.516437
186,6.303913927308213,0.8077580616115755,6.202237896222597,0.7428727673946384,3.0,88.516437
187,6.337805937670085,0.8930824110281739,6.473373979117573,-0.3181292353224828,-4.0,-118.021916
188,6.371697948031957,0.7950478816295566,6.507265989479445,-0.40152704256307387,-4.0,-118.021916
189,6.405589958393829,0.6596927843010671,6.541157999841317,-0.5154756283730871,-4.0,-118.021916
190,6.439481968755701,0.5916855534381126,6.5750500102031895,-0.5841113124579252,-4.0,-118.021916
191,6.473373979117573,0.5957152617953962,6.5750500102031895,-0.5841113124579252,-3.0,-88.516437
192,6.507265989479445,0.5893948327690434,6.6089420205650615,-0.5080085857387521,-3.0,-88.516437
193,6.541157999841317,0.4707400839768455,6.405589958393829,-0.18977999384149713,4.0,118.021916
194,6.5750500102031895,0.1907371022693201,6.473373979117573,-0.3181292353224828,3.0,88.516437
195,6.6089420205650615,-0.21270621713515986,6.507265989479445,-0.40152704256307387,3.0,88.516437
196,6.642834030926934,-0.6316960185927878,6.778402072374422,0.9424375237590144,-4.0,-118.021916
197,6.676726041288806,-0.9401433067010563,6.812294082736294,0.7370738093127402,-4.0,-118.021916
198,6.710618051650678,-1.0518402804790983,6.846186093098166,0.3954446443240153,-4.0,-118.021916
199,6.74451006201255,-0.9557027282820136,6.880078103460038,0.055482466349535464,-4.0,-118.021916
200,6.778402072374422,-0.71005563534749,6.880078103460038,0.055482466349535464,-3.0,-88.516437
201,6.812294082736294,-0.4010909782502541,6.91397011382191,-0.18965202001881024,-3.0,-88.516437
202,6.846186093098166,-0.0938714392076866,6.947862124183782,-0.33226226519450885,-3.0,-88.516437
203,6.880078103460039,0.19064037399586,6.981754134545655,-0.4318279121163273,-3.0,-88.516437
204,6.913970113821911,0.45732828461479025,6.812294082736295,0.7370738093127313,3.0,88.516437
205,6.947862124183783,0.6923367099078693,6.846186093098167,0.39544464432400644,3.0,88.516437
206,6.981754134545655,0.8298468961991772,6.846186093098167,0.39544464432400644,4.0,118.021916
207,7.015646144907527,0.7661531948116852,7.117322175993143,-0.7526420610984447,-3.0,-88.516437
208,7.049538155269399,0.4255432466817598,7.151214186355015,-0.47579367896014974,-3.0,-88.516437
209,7.083430165631271,-0.16128944427765046,7.185106196716887,-0.008932844411544391,-3.0,-88.516437
210,7.117322175993143,-0.8274226253622284,7.2189982070787595,0.5042201377926718,-3.0,-88.516437
211,7.151214186355015,-1.3255933429806612,7.252890217440632,0.8772754396503362,-3.0,-88.516437
212,7.185106196716887,-1.4482329996666456,7.286782227802504,0.9787575878358483,-3.0,-88.516437
213,7.2189982070787595,-1.1388094347913316,7.320674238164376,0.8001068254692008,-3.0,-88.516437
214,7.252890217440632,-0.5200514392962035,7.354566248526248,0.4518228828820288,-3.0,-88.516437
215,7.286782227802504,0.18020570543464917,7.38845825888812,0.09261681267674156,-3.0,-88.516437
216,7.320674238164376,0.7534212085434565,7.422350269249992,-0.1612393673454004,-3.0,-88.516437
217,7.354566248526248,1.1023312061805222,7.456242279611864,-0.2894030250930209,-3.0,-88.516437
218,7.38845825888812,1.249852344528136,7.490134289973736,-0.3538197549536408,-3.0,-88.516437
219,7.422350269249992,1.2766476884144726,7.524026300335608,-0.43228969372570464,-3.0,-88.516437
220,7.456242279611864,1.2408244571878901,7.55791831069748,-0.5467809926581787,-3.0,-88.516437
221,7.490134289973737,1.132054362175643,7.591810321059353,-0.6362640028862824,-3.0,-88.516437
222,7.524026300335609,0.8835111483692977,7.625702331421225,-0.5942008553999684,-3.0,-88.516437
223,7.557918310697481,0.4319252763454215,7.659594341783097,-0.3473514807648455,-3.0,-88.516437
224,7.591810321059353,-0.20950981436879856,7.693486352144969,0.07726315546969822,-3.0,-88.516437
225,7.625702331421225,-0.9122310906537063,7.727378362506841,0.5456037312662654,-3.0,-88.516437
226,7.659594341783097,-1.462489728982311,7.761270372868713,0.8796626416481395,-3.0,-88.516437
227,7.693486352144969,-1.6566527316962056,7.795162383230585,0.9524134085941345,-3.0,-88.516437
228,7.727378362506841,-1.409362318729894,7.8290543935924575,0.7543075711606916,-3.0,-88.516437
229,7.761270372868713,-0.8037362469740069,7.8629464039543295,0.3901701793627129,-3.0,-88.516437
230,7.795162383230585,-0.048966990164868385,7.896838414316202,0.011834508395520126,-3.0,-88.516437
231,7.8290543935924575,0.6234462820287339,7.930730424678074,-0.26769104707038943,-3.0,-88.516437
232,7.8629464039543295,1.0555783588478505,7.964622435039946,-0.4245100652687593,-3.0,-88.516437
233,7.896838414316202,1.2010287484991544,7.998514445401818,-0.5109538750701215,-3.0,-88.516437
234,7.930730424678074,1.1037276569915802,8.03240645576369,-0.5937600354689344,-3.0,-88.516437
235,7.964622435039946,0.8481211579885811,8.066298466125563,-0.6884270700395158,-3.0,-88.516437
236,7.998514445401818,0.5116089674048122,8.100190476487434,-0.736303959837812,-3.0,-88.516437
237,8.03240645576369,0.1382204377295046,8.134082486849307,-0.6421906050955818,-3.0,-88.516437
238,8.066298466125563,-0.257598763403319,8.16797449721118,-0.34866047510892006,-3.0,-88.516437
239,8.100190476487434,-0.6617212383190647,8.201866507573051,0.1043325862240687,-3.0,-88.516437
240,8.134082486849307,-1.0276844305671444,8.235758517934924,0.5795042485038928,-3.0,-88.516437
241,8.167974497211178,-1.2692419963436918,8.269650528296795,0.9076194125223067,-3.0,-88.516437
242,8.201866507573051,-1.2916849921711377,8.303542538658668,0.9779303650460321,-3.0,-88.516437
243,8.235758517934922,-1.047288621267262,8.33743454902054,0.7947891530748848,-3.0,-88.516437
244,8.269650528296795,-0.5790841530680405,8.371326559382412,0.4649401736782044,-3.0,-88.516437
245,8.303542538658666,-0.020134088266515377,8.405218569744283,0.127649156430712,-3.0,-88.516437
246,8.33743454902054,0.45699741452500287,8.439110580106156,-0.12353434019284841,-3.0,-88.516437
247,8.371326559382412,0.7135700932208879,8.47300259046803,-0.2774041821261214,-3.0,-88.516437
248,8.405218569744283,0.7008305553593803,8.5068946008299,-0.38188095246711695,-3.0,-88.516437
249,8.439110580106156,0.4721539713319352,8.540786611191773,-0.4836006894770599,-3.0,-88.516437
250,8.473002590468028,0.14964527714090045,8.574678621553645,-0.5761601730500119,-3.0,-88.516437
251,8.5068946008299,-0.13586091756245441,8.608570631915518,-0.5948861356989849,-3.0,-88.516437
252,8.540786611191772,-0.30356386925282963,8.642462642277389,-0.46302176998995814,-3.0,-88.516437
253,8.574678621553645,-0.35388195953145113,8.676354652639262,-0.15765023520496046,-3.0,-88.516437
254,8.608570631915516,-0.35628977232102454,8.710246663001133,0.2522234043997903,-3.0,-88.516437
255,8.642462642277389,-0.39695779609517684,8.744138673363006,0.6261641115865865,-3.0,-88.516437
256,8.67635465263926,-0.5119876528394577,8.778030683724877,0.8224704375207299,-3.0,-88.516437
257,8.710246663001133,-0.6468896969958945,8.81192269408675,0.7741067092723698,-3.0,-88.516437
258,8.744138673363004,-0.6751660440832041,8.608570631915516,-0.5948861356989917,4.0,118.021916
259,8.778030683724877,-0.47339141716630845,8.642462642277389,-0.46302176998995814,4.0,118.021916
260,8.811922694086748,-0.006933154154214796,8.913598725172365,-0.11711703862833943,-3.0,-88.516437
261,8.845814704448621,0.6329352832304876,8.947490735534238,-0.31454843232578344,-3.0,-88.516437
262,8.879706714810492,1.266153349538954,8.98138274589611,-0.42414410351684995,-3.0,-88.516437
263,8.913598725172365,1.7088405598019525,9.015274756257982,-0.5054365114552758,-3.0,-88.516437
264,8.947490735534236,1.8530196514521577,9.049166766619853,-0.5998623132010565,-3.0,-88.516437
265,8.98138274589611,1.6989552696517818,8.845814704448621,0.5216224953912895,4.0,118.021916
266,9.015274756257982,1.3292024503181334,8.879706714810494,0.1831255743055196,4.0,118.021916
267,9.049166766619853,0.8469673763548001,9.15084279770547,-0.5052799929629941,-3.0,-88.516437
268,9.083058776981726,0.3227840714331338,9.184734808067343,-0.1415399186725049,-3.0,-88.516437
269,9.116950787343598,-0.21315449753056162,9.218626818429215,0.32339376838330786,-3.0,-88.516437
270,9.15084279770547,-0.7319580134605931,9.252518828791088,0.7312942858995245,-3.0,-88.516437
271,9.184734808067342,-1.1603849307346934,9.049166766619853,-0.5998623132010565,4.0,118.021916
272,9.218626818429215,-1.380227253667538,9.083058776981726,-0.6852995459846494,4.0,118.021916
273,9.252518828791086,-1.2906162295987664,9.116950787343598,-0.6813913035257096,4.0,118.021916
274,9.286410839152959,-0.8932797309500817,9.388086870238576,0.21854858960441492,-3.0,-88.516437
275,9.32030284951483,-0.3283374649498063,9.421978880600447,-0.1013802061057123,-3.0,-88.516437
276,9.354194859876703,0.18303751048955608,9.45587089096232,-0.31591927056195496,-3.0,-88.516437
277,9.388086870238574,0.46006586445243625,9.489762901324191,-0.4424350766353954,-3.0,-88.516437
278,9.421978880600447,0.46297649456527684,9.523654911686064,-0.5321871529102097,-3.0,-88.516437
279,9.455870890962318,0.298683946340123,9.32030284951483,0.8647368161136519,4.0,118.021916
280,9.489762901324191,0.12785510170377715,9.354194859876703,0.5832457692694846,4.0,118.021916
281,9.523654911686062,0.04320358121783936,9.388086870238574,0.2185485896044317,4.0,118.021916
282,9.557546922047935,0.00922708046082487,9.659222953133552,-0.25236939633330324,-3.0,-88.516437
283,9.591438932409808,-0.09378357769262703,9.693114963495425,0.16539612429236047,-3.0,-88.516437
284,9.62533094277168,-0.35841130336090127,9.727006973857296,0.5984090448093361,-3.0,-88.516437
285,9.659222953133552,-0.7583731473527414,9.76089898421917,0.8898461997998505,-3.0,-88.516437
286,9.693114963495423,-1.1437653163669956,9.79479099458104,0.9353044450828228,-3.0,-88.516437
287,9.727006973857296,-1.3226834340874036,9.591438932409808,-0.6324955512226665,4.0,118.021916
288,9.760898984219168,-1.171267285745767,9.62533094277168,-0.5301332554800019,4.0,118.021916
289,9.79479099458104,-0.7042667027289916,9.896467025666658,0.04996413967742484,-3.0,-88.516437
290,9.828683004942912,-0.0686266007565317,9.930359036028529,-0.2190213963144008,-3.0,-88.516437
291,9.862575015304785,0.5309225066130547,9.964251046390402,-0.39620367858722705,-3.0,-88.516437
292,9.896467025666656,0.9269127004240278,9.760898984219168,0.8898461997998481,4.0,118.021916
293,9.930359036028529,1.050066544247879,9.79479099458104,0.9353044450828228,4.0,118.021916
294,9.9642510463904,0.9300961636625797,9.828683004942912,0.7380440851458252,4.0,118.021916
295,9.998143056752273,0.6515626456427023,9.862575015304785,0.39879608352571144,4.0,118.021916
296,10.032035067114144,0.3026704027347784,10.133711098199761,-0.5236067466947418,-3.0,-88.516437
297,10.065927077476017,-0.05177812114224874,10.167603108561634,-0.1560605313653579,-3.0,-88.516437
298,10.099819087837888,-0.3661962535995257,10.201495118923505,0.3082065812600455,-3.0,-88.516437
299,10.133711098199761,-0.5942960740841243,10.235387129285378,0.7168952092953705,-3.0,-88.516437
300,10.167603108561634,-0.677452267736051,10.269279139647251,0.9263615128872287,-3.0,-88.516437
301,10.201495118923505,-0.5578844549520074,10.065927077476017,-0.7229118072990929,4.0,118.021916
302,10.235387129285378,-0.2150671294395096,10.09981908783789,-0.7091463008934089,4.0,118.021916
303,10.26927913964725,0.2966328402712743,10.370955170732866,0.2628234717943192,-3.0,-88.516437
304,10.303171150009122,0.8416849095821641,10.40484718109474,-0.062127103479733214,-3.0,-88.516437
305,10.337063160370993,1.2476886857796867,10.43873919145661,-0.30050830711091825,-3.0,-88.516437
306,10.370955170732866,1.3831367780096782,10.43873919145661,-0.30050830711091825,-2.0,-59.010958
307,10.404847181094738,1.221170969008053,10.472631201818482,-0.4617357154958373,-2.0,-59.010958
308,10.43873919145661,0.8482772808159202,10.26927913964725,0.9263615128872313,5.0,147.527395
309,10.472631201818482,0.41494017334796135,10.540415222542226,-0.6819290191619433,-2.0,-59.010958
310,10.506523212180355,0.059924410269048975,10.845443315799075,0.4867506611776301,-10.0,-295.05479
311,10.540415222542226,-0.15210015223723833,10.879335326160946,0.1439591988884779,-10.0,-295.05479
312,10.574307232904099,-0.2521163915321989,10.91322733652282,-0.14971717697987985,-10.0,-295.05479
313,10.60819924326597,-0.33826038579232753,10.94711934688469,-0.3667084454596382,-10.0,-295.05479
314,10.642091253627843,-0.5084988167446051,10.709875274351587,0.5179558675095705,-2.0,-59.010958
315,10.675983263989714,-0.7874296419052517,10.743767284713458,0.8385529728884218,-2.0,-59.010958
316,10.709875274351587,-1.0915974675571753,10.777659295075331,0.9324508804465976,-2.0,-59.010958
317,10.743767284713458,-1.2627034196058777,10.811551305437202,0.7886677877217603,-2.0,-59.010958
318,10.777659295075331,-1.15662296454136,10.845443315799075,0.4867506611776301,-2.0,-59.010958
319,10.811551305437204,-0.7350083480490933,10.879335326160948,0.14395919888845995,-2.0,-59.010958
320,10.845443315799075,-0.1004577331058404,10.91322733652282,-0.14971717697987985,-2.0,-59.010958
321,10.879335326160948,0.545903467663912,10.947119346884692,-0.3667084454596496,-2.0,-59.010958
322,10.91322733652282,0.9946206251601136,10.981011357246564,-0.5284057910738341,-2.0,-59.010958
323,10.947119346884692,1.1122233691290702,11.014903367608436,-0.6584771350747219,-2.0,-59.010958
324,10.981011357246564,0.8808184538445117,11.048795377970308,-0.7408386927230645,-2.0,-59.010958
325,11.014903367608436,0.38653761283365884,11.08268738833218,-0.7164304841184782,-2.0,-59.010958
326,11.048795377970308,-0.22508300275885143,11.116579398694052,-0.5248198864766046,-2.0,-59.010958
327,11.08268738833218,-0.8008729203808628,11.150471409055925,-0.1623826984915149,-2.0,-59.010958
328,11.116579398694052,-1.2184681377134117,11.184363419417796,0.2872046280342195,-2.0,-59.010958
329,11.150471409055925,-1.4036680780001511,11.218255429779669,0.6783879814889178,-2.0,-59.010958
330,11.184363419417796,-1.3311964554948812,11.25214744014154,0.8743781470096155,-2.0,-59.010958
331,11.218255429779669,-1.018487947543245,11.286039450503413,0.8186207767059082,-2.0,-59.010958
332,11.25214744014154,-0.5195742040557856,11.319931460865284,0.5602813830228579,-2.0,-59.010958
333,11.286039450503413,0.08005948221914147,11.353823471227157,0.21824811574496927,-2.0,-59.010958
334,11.319931460865284,0.6719370140079052,11.150471409055923,-0.16238269849153392,5.0,147.527395
335,11.353823471227157,1.1418596393768023,11.184363419417796,0.2872046280342195,5.0,147.527395
336,11.38771548158903,1.397967173866452,11.218255429779669,0.6783879814889178,5.0,147.527395
337,11.421607491950901,1.4032049250249534,11.489391512674645,-0.546797685650374,-2.0,-59.010958
338,11.455499502312774,1.1950970992526209,11.523283523036518,-0.6230729991682428,-2.0,-59.010958
339,11.489391512674645,0.8728023951542759,11.55717553339839,-0.6333632397690143,-2.0,-59.010958
340,11.523283523036518,0.5474423805549169,11.591067543760262,-0.5044547136400539,-2.0,-59.010958
341,11.55717553339839,0.2816488882803825,11.624959554122134,-0.19303989922425907,-2.0,-59.010958
342,11.591067543760262,0.06218656852140454,11.421607491950901,-0.3076452033113118,5.0,147.527395
343,11.624959554122134,-0.1687936385813229,11.692743574845878,0.7192530510615841,-2.0,-59.010958
344,11.658851564484007,-0.4443332256265444,11.72663558520775,1.0216825934679108,-2.0,-59.010958
345,11.692743574845878,-0.7194277141274649,11.760527595569622,1.0529890683055003,-2.0,-59.010958
346,11.72663558520775,-0.8786676525034944,11.794419605931495,0.8125739571890113,-2.0,-59.010958
347,11.760527595569622,-0.8043066043899707,11.59106754376026,-0.5044547136400607,5.0,147.527395
348,11.794419605931495,-0.45951332813162166,11.624959554122134,-0.19303989922425907,5.0,147.527395
349,11.828311616293366,0.07073997822551993,11.658851564484005,0.25897849612281254,5.0,147.527395
350,11.862203626655239,0.6104389171539133,11.692743574845878,0.7192530510615841,5.0,147.527395
351,11.89609563701711,0.9757158477566026,11.963879657740854,-0.9654106619440792,-2.0,-59.010958
352,11.929987647378983,1.058042214641477,12.235015740635832,1.8146393554469973,-9.0,-265.549311
353,11.963879657740856,0.8600088930981011,12.268907750997705,1.4242819580581296,-9.0,-265.549311
354,11.997771668102727,0.4714907887131948,11.828311616293366,0.4041814649174646,5.0,147.527395
355,12.0316636784646,0.010873639351879105,12.099447699188344,-0.3984283928730807,-2.0,-59.010958
356,12.065555688826471,-0.4287602705722389,12.37058378208332,-0.6894539840498521,-9.0,-265.549311
357,12.099447699188344,-0.7995502036659774,12.404475792445194,-1.1809237156433359,-9.0,-265.549311
358,12.133339709550215,-1.0828638378067186,12.438367802807065,-1.5019967968806278,-9.0,-265.549311
359,12.167231719912088,-1.2606216404924186,12.472259813168938,-1.64924037118028,-9.0,-265.549311
360,12.20112373027396,-1.3030299459075665,12.506151823530809,-1.5718840042179416,-9.0,-265.549311
361,12.235015740635832,-1.1838372945806315,12.540043833892682,-1.2000850495751183,-9.0,-265.549311
362,12.268907750997704,-0.9078622818184549,12.573935844254553,-0.5254736548485788,-9.0,-265.549311
363,12.302799761359577,-0.5232232781720676,12.607827854616426,0.3337953418717158,-9.0,-265.549311
364,12.336691771721448,-0.10339501652473419,12.641719864978297,1.1462765884485429,-9.0,-265.549311
365,12.37058378208332,0.2869329884032501,12.912855947873274,-1.1021207846465444,-16.0,-472.087664
366,12.404475792445192,0.609748837287202,12.946747958235145,-1.2961886532077005,-16.0,-472.087664
367,12.438367802807065,0.8388069888986384,12.980639968597018,-1.2775687136172498,-16.0,-472.087664
368,12.472259813168936,0.9342099153136023,13.014531978958889,-0.9581733301524377,-16.0,-472.087664
369,12.506151823530809,0.8456946359145358,13.048423989320762,-0.3324542866618729,-16.0,-472.087664
370,12.54004383389268,0.5543890403025612,13.082315999682633,0.4630255464718009,-16.0,-472.087664
371,12.573935844254553,0.1185568418693377,13.353452082577611,-0.9133335931997001,-23.0,-678.626017
372,12.607827854616426,-0.32162030151588233,13.387344092939484,-1.1402834635413845,-23.0,-678.626017
373,12.641719864978297,-0.5945435796750744,13.421236103301355,-1.2651180319562734,-23.0,-678.626017
374,12.67561187534017,-0.5779726264168763,13.455128113663228,-1.2163908754038966,-23.0,-678.626017
375,12.709503885702041,-0.26526672758314246,13.4890201240251,-0.9026958884870161,-23.0,-678.626017
376,12.743395896063914,0.22249545507778634,13.522912134386972,-0.30957506590971623,-23.0,-678.626017
377,12.777287906425785,0.6916539695110301,13.556804144748844,0.4358420671819374,-23.0,-678.626017
378,12.811179916787658,0.9727092105898848,13.590696155110717,1.0934490638555696,-23.0,-678.626017
379,12.84507192714953,1.0029777782883402,13.861832238005693,-1.0793743790318515,-30.0,-885.1643700000001
380,12.878963937511402,0.8423706621313786,13.895724248367566,-1.0345248553352675,-30.0,-885.1643700000001
381,12.912855947873274,0.610755193153319,13.929616258729437,-0.8044069951821756,-30.0,-885.1643700000001
382,12.946747958235147,0.39106144145453453,13.96350826909131,-0.34428829934516547,-30.0,-885.1643700000001
383,12.980639968597018,0.17122345644535703,13.997400279453181,0.30632606883814323,-30.0,-885.1643700000001
384,13.01453197895889,-0.12724119808140125,14.031292289815054,0.989413408436109,-30.0,-885.1643700000001
385,13.048423989320762,-0.5521721837326943,14.268536362348158,-0.8548350322903682,-36.0,-1062.197244
386,13.082315999682635,-1.0313880203989512,14.30242837271003,-1.1723201266445193,-36.0,-1062.197244
387,13.116208010044506,-1.3704110308985922,14.336320383071902,-1.35716062275228,-36.0,-1062.197244
388,13.150100020406379,-1.3567636897057254,14.370212393433775,-1.3531101601644333,-36.0,-1062.197244
389,13.183992030768252,-0.9069526966504793,14.404104403795648,-1.0776139450984847,-36.0,-1062.197244
390,13.217884041130123,-0.14954300456934047,14.437996414157519,-0.5047382515739656,-36.0,-1062.197244
391,13.251776051491996,0.6248975455280861,14.471888424519392,0.26147656249394197,-36.0,-1062.197244
392,13.285668061853867,1.1217690921297785,14.505780434881263,0.9929637059439637,-36.0,-1062.197244
393,13.31956007221574,1.203524253105062,14.776916517776241,-1.17575520433101,-43.0,-1268.735597
394,13.353452082577611,0.9458147626479328,14.810808528138113,-1.2818945932238877,-43.0,-1268.735597
395,13.387344092939484,0.5558106065249738,14.844700538499985,-1.2172267049755228,-43.0,-1268.735597
396,13.421236103301355,0.21742897235786326,14.878592548861857,-0.8815546476849655,-43.0,-1268.735597
397,13.455128113663228,-0.02285733651649547,14.91248455922373,-0.23988647394515875,-43.0,-1268.735597
398,13.4890201240251,-0.2512657978836295,15.183620642118704,-0.6506142151806094,-50.0,-1475.27395
399,13.522912134386972,-0.5769571492442707,15.217512652480577,-1.0598545448726844,-50.0,-1475.27395
400,13.556804144748844,-1.009021134449833,15.251404662842448,-1.3249777831769607,-50.0,-1475.27395
401,13.590696155110717,-1.4158551616612214,15.285296673204321,-1.4598939471426131,-50.0,-1475.27395
402,13.624588165472588,-1.594680623877578,15.319188683566193,-1.4080168472568773,-50.0,-1475.27395
403,13.65848017583446,-1.3982151488578825,15.353080693928066,-1.0775265584990246,-50.0,-1475.27395
404,13.692372186196332,-0.8333936447130474,15.386972704289937,-0.43820289989556727,-50.0,-1475.27395
405,13.726264196558205,-0.07542923931718976,15.624216776823044,-0.024151426875534364,-56.0,-1652.306824
406,13.760156206920078,0.6053722223105835,15.658108787184915,-0.5521795618608144,-56.0,-1652.306824
407,13.794048217281949,0.9646110177165705,15.692000797546786,-0.9195401240472829,-56.0,-1652.306824
408,13.827940227643822,0.8964511004254656,15.759784818270532,-1.2731749514893473,-57.0,-1681.8123030000002
409,13.861832238005693,0.48674076466844257,15.793676828632403,-1.1993523625664944,-57.0,-1681.8123030000002
410,13.895724248367566,-0.02166089553985365,15.827568838994276,-0.8443866767781031,-57.0,-1681.8123030000002
411,13.929616258729437,-0.34065254387448574,15.861460849356147,-0.18919887989603992,-57.0,-1681.8123030000002
412,13.96350826909131,-0.27337361751613176,12.065555688826471,-0.9584295901406711,56.0,1652.306824
413,13.997400279453181,0.19424492340907343,12.099447699188342,-0.39842839287311005,56.0,1652.306824
414,14.031292289815054,0.891839622412937,12.133339709550217,0.4021991287137078,56.0,1652.306824
415,14.065184300176925,1.5458912618374538,12.404475792445192,-1.180923715643319,49.0,1445.768471
416,14.099076310538798,1.8948785572439246,12.438367802807065,-1.5019967968806278,49.0,1445.768471
417,14.13296832090067,1.7836272971680633,12.472259813168936,-1.649240371180284,49.0,1445.768471
418,14.166860331262543,1.2070486410828796,12.506151823530809,-1.5718840042179416,49.0,1445.768471
419,14.200752341624414,0.30231494754215327,12.54004383389268,-1.2000850495751536,49.0,1445.768471
420,14.234644351986287,-0.6971153863185527,12.573935844254553,-0.5254736548485788,49.0,1445.768471
421,14.268536362348158,-1.5300233731274433,12.607827854616424,0.3337953418716707,49.0,1445.768471
422,14.30242837271003,-1.9820478315070345,12.641719864978297,1.1462765884485429,49.0,1445.768471
423,14.336320383071902,-1.9474936073487583,12.709503885702041,1.7460934178856715,48.0,1416.262992
424,14.370212393433775,-1.4597718341968078,12.743395896063914,1.4180988182224925,48.0,1416.262992
425,14.404104403795648,-0.6776534879996569,12.777287906425787,0.8425333318499807,48.0,1416.262992
426,14.437996414157519,0.17256812793283702,12.811179916787658,0.21377048955130215,48.0,1416.262992
427,14.471888424519392,0.8782445484274838,13.048423989320764,-0.3324542866618312,42.0,1239.230118
428,14.505780434881263,1.3072088167154636,13.082315999682635,0.46302554647184246,42.0,1239.230118
429,14.539672445243136,1.4285717450411373,13.116208010044508,1.1800786829712933,42.0,1239.230118
430,14.573564455605007,1.2859161236979286,13.150100020406379,1.5728294598061614,42.0,1239.230118
431,14.60745646596688,0.9512063457009808,13.183992030768252,1.5234050151059075,42.0,1239.230118
432,14.641348476328751,0.4925941828025811,13.217884041130123,1.0951877726057506,42.0,1239.230118
433,14.675240486690624,-0.030278732425672264,13.251776051491996,0.4802429276704907,42.0,1239.230118
434,14.709132497052495,-0.5540206695234529,13.52291213438697,-0.30957506590974726,35.0,1032.691765
435,14.743024507414368,-1.0046570771788919,13.556804144748845,0.4358420671819719,35.0,1032.691765
436,14.77691651777624,-1.3124805527727055,13.590696155110717,1.0934490638555696,35.0,1032.691765
437,14.810808528138113,-1.4437358137456529,13.624588165472588,1.425158322795882,35.0,1032.691765
438,14.844700538499984,-1.4230803394418767,13.658480175834459,1.3222752126377741,35.0,1032.691765
439,14.878592548861857,-1.3209302765556208,13.929616258729437,-0.8044069951821756,28.0,826.153412
440,14.912484559223728,-1.2061750771983488,13.963508269091308,-0.3442882993451896,28.0,826.153412
441,14.9463765695856,-1.0950417577366187,13.997400279453181,0.30632606883814323,28.0,826.153412
442,14.980268579947474,-0.9341162867708657,14.26853636234816,-0.8548350322903848,21.0,619.615059
443,15.014160590309345,-0.6338405862346332,14.30242837271003,-1.1723201266445193,21.0,619.615059
444,15.048052600671218,-0.1344786047764536,14.336320383071904,-1.3571606227522799,21.0,619.615059
445,15.081944611033089,0.5364731397964544,14.370212393433775,-1.3531101601644333,21.0,619.615059
446,15.115836621394962,1.2523441157620856,14.404104403795648,-1.0776139450984847,21.0,619.615059
447,15.149728631756833,1.8302566038286667,14.437996414157519,-0.5047382515739656,21.0,619.615059
448,15.183620642118706,2.107356464591949,14.471888424519392,0.26147656249394197,21.0,619.615059
449,15.217512652480577,2.012220643970715,14.505780434881263,0.9929637059439637,21.0,619.615059
450,15.25140466284245,1.597462534778241,14.539672445243136,1.4364466724516476,21.0,619.615059
451,15.285296673204321,1.0197261939885927,14.573564455605007,1.4454650528073765,21.0,619.615059
452,15.319188683566194,0.478141706007203,14.60745646596688,1.0550402587639973,21.0,619.615059
453,15.353080693928066,0.13845642501947028,14.641348476328751,0.4475627688059617,21.0,619.615059
454,15.386972704289938,0.07176604565920558,14.91248455922373,-0.23988647394515875,14.0,413.076706
455,15.42086471465181,0.2295203247254849,14.9463765695856,0.5973829637133711,14.0,413.076706
456,15.454756725013683,0.4660961086584089,14.980268579947474,1.3848098683620418,14.0,413.076706
457,15.488648735375554,0.6039569773656909,15.014160590309345,1.8504194133730765,14.0,413.076706
458,15.522540745737427,0.5137980385373856,15.048052600671218,1.836012909949122,14.0,413.076706
459,15.5564327560993,0.1684963342916619,15.08194461103309,1.3761014709714774,14.0,413.076706
460,15.59032476646117,-0.3568410598427251,15.115836621394962,0.6645241911874249,14.0,413.076706
461,15.624216776823044,-0.931572418028228,15.827568838994276,-0.8443866767781031,-6.0,-177.032874
462,15.658108787184915,-1.4277322906004057,16.09870492188925,-0.43072718106983054,-13.0,-383.571227
463,15.692000797546788,-1.7552178241596876,16.132596932251126,-0.9964296425045063,-13.0,-383.571227
464,15.725892807908659,-1.8649697959969176,16.166488942612997,-1.3575613933839585,-13.0,-383.571227
465,15.759784818270532,-1.7383197341836603,16.200380952974868,-1.5481038824588798,-13.0,-383.571227
466,15.793676828632403,-1.386211679217661,16.23427296333674,-1.5769753321318416,-13.0,-383.571227
467,15.827568838994276,-0.8619711646132049,16.268164973698614,-1.3916441106403001,-13.0,-383.571227
468,15.861460849356147,-0.26712367709782886,16.302056984060485,-0.925260510540163,-13.0,-383.571227
469,15.89535285971802,0.2708397582693052,16.335948994422356,-0.18877254920459086,-13.0,-383.571227
470,15.929244870079891,0.6440292949767774,16.369841004784227,0.6714113518953869,-13.0,-383.571227
471,15.963136880441764,0.8029693332803994,16.403733015146102,1.4071305853234466,-13.0,-383.571227
472,15.997028890803636,0.7610618088038144,16.437625025507973,1.7811609175670657,-13.0,-383.571227
473,16.03092090116551,0.5665189354931822,16.471517035869844,1.6853624382325443,-13.0,-383.571227
474,16.06481291152738,0.27108431534490196,16.505409046231716,1.1862033799819425,-13.0,-383.571227
475,16.09870492188925,-0.077809385911443,16.776545129126692,-0.19885334654580478,-20.0,-590.10958
476,16.132596932251126,-0.4240730220788333,16.810437139488567,0.6170918000253026,-20.0,-590.10958
477,16.166488942612997,-0.6948740479785659,16.844329149850438,1.3567822997663104,-20.0,-590.10958
478,16.200380952974868,-0.8155930969155099,16.87822116021231,1.7815559966171621,-20.0,-590.10958
479,16.234272963336743,-0.7386219975564546,16.67486909804108,-1.3617828810560546,-13.0,-383.571227
480,16.268164973698614,-0.46107184122540673,16.70876110840295,-1.2598637304637106,-13.0,-383.571227
481,16.302056984060485,-0.018954985726829576,16.74265311876482,-0.8662133366982804,-13.0,-383.571227
482,16.335948994422356,0.5298716048315284,16.53930105659359,0.47334906894270234,-6.0,-177.032874
483,16.36984100478423,1.1137851064986373,16.573193066955465,-0.24500015172813108,-6.0,-177.032874
484,16.403733015146102,1.6430510791561588,16.844329149850438,1.3567822997663104,-13.0,-383.571227
485,16.437625025507973,2.0101221495328074,16.87822116021231,1.7815559966171621,-13.0,-383.571227
486,16.471517035869844,2.111424312737759,16.91211317057418,1.7547733573685138,-13.0,-383.571227
487,16.50540904623172,1.8859322101412184,16.946005180936055,1.3090740751282113,-13.0,-383.571227
488,16.53930105659359,1.34683100845751,16.979897191297926,0.6184640958616231,-13.0,-383.571227
489,16.57319306695546,0.5865865309876,17.013789201659797,-0.10289394121364104,-13.0,-383.571227
490,16.607085077317333,-0.2443236775768888,17.04768121202167,-0.7031017024814492,-13.0,-383.571227
491,16.640977087679207,-0.972309784944034,17.081573222383543,-1.1295405339797875,-13.0,-383.571227
492,16.67486909804108,-1.4399593383113003,17.115465232745414,-1.3878669827853163,-13.0,-383.571227
493,16.70876110840295,-1.5467736555136746,17.149357243107286,-1.4705223509781418,-13.0,-383.571227
494,16.742653118764824,-1.2850176989501316,17.18324925346916,-1.3235466974679433,-13.0,-383.571227
495,16.776545129126696,-0.7547670494386589,17.21714126383103,-0.8867015032236248,-13.0,-383.571227
496,16.810437139488567,-0.14002631065684065,17.251033274192903,-0.17794192070064427,-13.0,-383.571227
497,16.844329149850438,0.35674148638662956,16.369841004784227,0.6714113518953869,14.0,413.076706
498,16.878221160212313,0.5961119749906266,16.403733015146102,1.4071305853234466,14.0,413.076706
499,16.912113170574184,0.5546169881154126,16.437625025507973,1.7811609175670657,14.0,413.076706
500,16.946005180936055,0.31556084518782007,16.471517035869844,1.6853624382325443,14.0,413.076706
501,16.979897191297926,0.0028259988008123293,16.505409046231716,1.1862033799819425,14.0,413.076706
502,17.0137892016598,-0.2979308685506042,16.53930105659359,0.47334906894270234,14.0,413.076706
503,17.047681212021672,-0.576525944783109,16.810437139488567,0.6170918000253026,7.0,206.538353
504,17.081573222383543,-0.8697842636278998,16.844329149850438,1.3567822997663104,7.0,206.538353
505,17.115465232745414,-1.1926157247945857,16.87822116021231,1.7815559966171621,7.0,206.538353
506,17.14935724310729,-1.4851363632801993,16.912113170574184,1.754773357368511,7.0,206.538353
507,17.18324925346916,-1.621171613099966,16.946005180936055,1.3090740751282113,7.0,206.538353
508,17.21714126383103,-1.478649120406809,16.979897191297926,0.6184640958616231,7.0,206.538353
509,17.251033274192903,-1.0274129126065548,17.013789201659797,-0.10289394121364104,7.0,206.538353
510,17.284925284554777,-0.3755909447346558,17.047681212021672,-0.7031017024815122,7.0,206.538353
511,17.31881729491665,0.26180090414893226,17.081573222383543,-1.1295405339797875,7.0,206.538353
512,17.35270930527852,0.6642152977568212,17.115465232745414,-1.3878669827853163,7.0,206.538353
513,17.386601315640394,0.7254017429016736,17.14935724310729,-1.4705223509781504,7.0,206.538353
514,17.420493326002266,0.5199200473291012,17.18324925346916,-1.3235466974679433,7.0,206.538353
515,17.454385336364137,0.2666061568934911,17.21714126383103,-0.8867015032236248,7.0,206.538353
516,17.488277346726008,0.20042925405768072,17.251033274192903,-0.17794192070064427,7.0,206.538353
517,17.522169357087883,0.4283152329359743,17.284925284554777,0.6508900770238303,7.0,206.538353
518,17.556061367449754,0.8633209031211198,17.522169357087883,-1.07294393303742,1.0,29.505479
519,17.589953377811625,1.2839410002333638,17.556061367449754,-1.4318356995342039,1.0,29.505479
520,17.623845388173496,1.4799266521070795,17.589953377811625,-1.5905726592440383,1.0,29.505479
521,17.65773739853537,1.3842036738960704,17.6238453881735,-1.523976435406931,1.0,29.505479
522,17.691629408897242,1.1005989215919596,17.65773739853537,-1.1774388019136148,1.0,29.505479
523,17.725521419259113,0.8143881908117261,17.691629408897242,-0.531259702757714,1.0,29.505479
524,17.759413429620984,0.6579934212652261,17.725521419259113,0.32139685617801017,1.0,29.505479
525,17.79330543998286,0.6298436270023601,17.522169357087883,-1.07294393303742,8.0,236.043832
526,17.82719745034473,0.6144686255111971,17.556061367449754,-1.4318356995342039,8.0,236.043832
527,17.8610894607066,0.47485990235729997,17.589953377811625,-1.5905726592440383,8.0,236.043832
528,17.894981471068473,0.14612746498869106,17.623845388173496,-1.5239764354069674,8.0,236.043832
529,17.928873481430347,-0.32692786248753214,17.65773739853537,-1.1774388019136148,8.0,236.043832
530,17.96276549179222,-0.8203858980160947,17.691629408897242,-0.531259702757714,8.0,236.043832
531,17.99665750215409,-1.1999187094408226,17.725521419259113,0.32139685617801017,8.0,236.043832
532,18.030549512515964,-1.381616746830856,17.759413429620988,1.159378262100314,8.0,236.043832
533,18.064441522877836,-1.3539589091728335,17.79330543998286,1.7141432390580946,8.0,236.043832
534,18.098333533239707,-1.1613790258679024,17.82719745034473,1.8026931422569314,8.0,236.043832
535,18.132225543601578,-0.8723475628745924,17.8610894607066,1.4227126085634916,8.0,236.043832
536,18.166117553963453,-0.5540600820524197,17.894981471068476,0.7431440198414877,8.0,236.043832
537,18.200009564325324,-0.25939300923898173,17.928873481430347,-0.0002203887325048156,8.0,236.043832
538,18.233901574687195,-0.01959802192501765,18.200009564325324,1.0208317020280517,1.0,29.505479
539,18.267793585049066,0.1600691486207097,18.233901574687195,1.7650567958352499,1.0,29.505479
540,18.30168559541094,0.2943084344052195,18.26779358504907,2.0723574991232954,1.0,29.505479
541,18.335577605772812,0.39590515217273003,18.30168559541094,1.8274531877738798,1.0,29.505479
542,18.369469616134683,0.449664435629057,18.335577605772812,1.1261336649300793,1.0,29.505479
543,18.403361626496554,0.40638184238081027,18.369469616134683,0.2116927846519841,1.0,29.505479
544,18.43725363685843,0.21123187188017198,18.403361626496558,-0.656718783427352,1.0,29.505479
545,18.4711456472203,-0.14581286749318398,18.64060569902966,0.5663864718409833,-5.0,-147.527395
546,18.50503765758217,-0.5911259746201951,18.67449770939153,1.383796489210154,-5.0,-147.527395
547,18.538929667944046,-0.9725720543240911,18.708389719753406,1.8482195476992946,-5.0,-147.527395
548,18.572821678305917,-1.1177583927587216,18.538929667944046,-1.611444660475552,1.0,29.505479
549,18.60671368866779,-0.9215993936370417,18.572821678305917,-1.1201984275717292,1.0,29.505479
550,18.64060569902966,-0.41476793187069777,18.60671368866779,-0.3486616550709699,1.0,29.505479
551,18.674497709391535,0.23405912925887437,18.640605699029663,0.566386471841069,1.0,29.505479
552,18.708389719753406,0.7947848486052354,18.43725363685843,-1.3105546214655932,8.0,236.043832
553,18.742281730115277,1.0923497817024301,18.4711456472203,-1.6912484074990275,8.0,236.043832
554,18.776173740477148,1.0912925586433837,18.50503765758217,-1.7949763704678072,8.0,236.043832
555,18.810065750839023,0.8924742107964528,18.538929667944046,-1.611444660475552,8.0,236.043832
556,18.843957761200894,0.6461674564917402,18.572821678305917,-1.1201984275717292,8.0,236.043832
557,18.877849771562765,0.4471244699571027,18.60671368866779,-0.3486616550709699,8.0,236.043832
558,18.911741781924636,0.2888747236435988,18.64060569902966,0.5663864718409833,8.0,236.043832
559,18.94563379228651,0.10488858530856916,18.91174178192464,-1.4766895266217277,1.0,29.505479
560,18.979525802648382,-0.1440412234065063,18.94563379228651,-1.6789772188850756,1.0,29.505479
561,19.013417813010253,-0.40858347394804645,18.979525802648382,-1.5891121438938862,1.0,29.505479
562,19.047309823372125,-0.5646349429731258,19.013417813010253,-1.1799185268161685,1.0,29.505479
563,19.081201833734,-0.4948110448304191,19.047309823372128,-0.468791541363993,1.0,29.505479
564,19.11509384409587,-0.18040709812596595,19.28455389590523,-0.0428876838255726,-5.0,-147.527395
565,19.14898585445774,0.26430001485275406,19.3184459062671,-0.7570898238413477,-5.0,-147.527395
566,19.182877864819616,0.6442418850549829,18.674497709391535,1.3837964892102397,15.0,442.58218500000004
567,19.216769875181487,0.7879163775453046,18.708389719753406,1.8482195476992946,15.0,442.58218500000004
568,19.25066188554336,0.6335008890821412,18.742281730115277,1.8126352246504813,15.0,442.58218500000004
569,19.28455389590523,0.24581466906133226,18.776173740477148,1.309582291713793,15.0,442.58218500000004
570,19.318445906267105,-0.2335959605293071,18.810065750839023,0.5235821346784695,15.0,442.58218500000004
571,19.352337916628976,-0.6599287531076776,18.843957761200894,-0.3104318224549401,15.0,442.58218500000004
572,19.386229926990847,-0.9364504927383106,18.877849771562765,-1.008652591494451,15.0,442.58218500000004
573,19.420121937352718,-1.0263936172126285,18.911741781924636,-1.4766895266217066,15.0,442.58218500000004
574,19.454013947714593,-0.9387770622631139,19.182877864819616,1.890255347830416,8.0,236.043832
575,19.487905958076464,-0.7107259028880146,18.979525802648382,-1.5891121438938862,15.0,442.58218500000004
576,19.521797968438335,-0.39671902998858327,19.013417813010253,-1.1799185268161685,15.0,442.58218500000004
577,19.555689978800206,-0.05960580894424022,19.047309823372125,-0.46879154136408663,15.0,442.58218500000004
578,19.58958198916208,0.24537330388898923,19.318445906267105,-0.7570898238414225,8.0,236.043832
579,19.623473999523952,0.49109366424819073,19.318445906267105,-0.7570898238414225,9.0,265.549311
580,19.657366009885823,0.6857795935843086,19.589581989162077,1.602466080148198,2.0,59.010958
581,19.691258020247695,0.8501907187938137,19.62347399952395,1.845241462364528,2.0,59.010958
582,19.72515003060957,0.9740968370672237,19.42012193735272,-1.598004615360453,9.0,265.549311
583,19.75904204097144,0.9898830609946362,19.454013947714593,-1.3356000789737885,9.0,265.549311
584,19.79293405133331,0.7982496723304484,19.725150030609566,0.16245026233242243,2.0,59.010958
585,19.826826061695186,0.3418480050286998,19.75904204097144,-0.6080120332770046,2.0,59.010958
586,19.860718072057058,-0.3210606987566388,19.79293405133331,-1.2070589027873564,2.0,59.010958
587,19.89461008241893,-1.0013485459797433,19.826826061695183,-1.5682379215573445,2.0,59.010958
588,19.9285020927808,-1.4467360872101693,19.860718072057054,-1.651001152161297,2.0,59.010958
589,19.962394103142675,-1.4622261868618136,19.89461008241893,-1.4121950233816607,2.0,59.010958
590,19.996286113504546,-1.0154692617670258,19.9285020927808,-0.8323269790049417,2.0,59.010958
591,20.030178123866417,-0.26436484249483044,19.96239410314267,0.02190184245661908,2.0,59.010958
592,20.064070134228288,0.5111095016313711,20.199638175675776,-0.49025473827542726,-4.0,-118.021916
593,20.097962144590163,1.0353422100944603,20.23353018603765,-1.1675296196377332,-4.0,-118.021916
594,20.131854154952034,1.1535198933449657,20.064070134228288,2.038099869848997,2.0,59.010958
595,20.165746165313905,0.8807445500496137,20.09796214459016,1.8389889129979555,2.0,59.010958
596,20.199638175675776,0.36826462378469516,20.13185415495203,1.2052743427045003,2.0,59.010958
597,20.23353018603765,-0.1831136867338915,20.165746165313905,0.3525010716424251,2.0,59.010958
598,20.267422196399522,-0.6090366568904969,20.199638175675776,-0.49025473827542726,2.0,59.010958
599,20.301314206761393,-0.82504879474241,20.43688224820888,0.47378721660679485,-4.0,-118.021916
600,20.335206217123268,-0.8205331965097147,20.470774258570756,1.2871284472720348,-4.0,-118.021916
601,20.36909822748514,-0.6275419210698089,20.504666268932628,1.7496624559668812,-4.0,-118.021916
602,20.40299023784701,-0.29593132968192687,20.335206217123265,-1.6601823672766456,2.0,59.010958
603,20.43688224820888,0.11133507927553024,20.369098227485136,-1.2001107311016515,2.0,59.010958
604,20.470774258570756,0.5143517654782633,20.40299023784701,-0.4386474332364732,2.0,59.010958
605,20.504666268932628,0.8258584670568393,20.640234310380116,-0.21930149847653074,-4.0,-118.021916
606,20.5385582792945,0.9795753058676603,20.674126320741987,-0.8615760859357804,-4.0,-118.021916
607,20.57245028965637,0.955825460156151,20.708018331103858,-1.305527983234531,-4.0,-118.021916
608,20.606342300018245,0.7787659677253426,20.741910341465733,-1.5156250806436231,-4.0,-118.021916
609,20.640234310380116,0.4870011249378393,20.775802351827604,-1.4511748606843204,-4.0,-118.021916
610,20.674126320741987,0.10847038448641286,20.57245028965637,1.2644573509984178,3.0,88.516437
611,20.708018331103858,-0.3333888444831716,20.843586372551346,-0.37152012237337395,-4.0,-118.021916
612,20.741910341465733,-0.789207660300301,20.87747838291322,0.5106668256173448,-4.0,-118.021916
613,20.775802351827604,-1.1637464927855194,20.911370393275092,1.3384170931544188,-4.0,-118.021916
614,20.809694362189475,-1.3356857504251445,20.708018331103858,-1.305527983234531,3.0,88.516437
615,20.843586372551346,-1.2147890693474208,20.74191034146573,-1.5156250806436011,3.0,88.516437
616,20.87747838291322,-0.8026916664700006,20.775802351827604,-1.4511748606843204,3.0,88.516437
617,20.911370393275092,-0.2142864516657921,20.809694362189475,-1.067067375099932,3.0,88.516437
618,20.945262403636963,0.3628300221047663,20.843586372551346,-0.37152012237337395,3.0,88.516437
619,20.979154413998838,0.7539885113823637,21.114722455446326,-0.9944305091942184,-4.0,-118.021916
620,21.01304642436071,0.8789756105363716,21.148614465808198,-1.4977810007900694,-4.0,-118.021916
621,21.04693843472258,0.7785858325283638,20.945262403636963,1.8425396269629748,3.0,88.516437
622,21.08083044508445,0.5682007771356289,20.979154413998835,1.8533121249847537,3.0,88.516437
623,21.114722455446326,0.3496569888493046,21.01304642436071,1.3815233270717795,3.0,88.516437
624,21.148614465808198,0.14564155390093877,21.04693843472258,0.5993545414398737,3.0,88.516437
625,21.18250647617007,-0.09225124062723006,21.318074517617557,0.5158871511445099,-4.0,-118.021916
626,21.21639848653194,-0.4083546352168869,21.351966527979428,1.3590858632793246,-4.0,-118.021916
627,21.250290496893815,-0.7645492476131682,21.385858538341303,1.8640961449886715,-4.0,-118.021916
628,21.284182507255686,-1.0272449957178025,21.18250647617007,-1.7146652397731212,3.0,88.516437
629,21.318074517617557,-1.0354760626930803,21.21639848653194,-1.6097953512012286,3.0,88.516437
630,21.351966527979428,-0.702901561332764,21.25029049689381,-1.1613686908520093,3.0,88.516437
631,21.385858538341303,-0.08286431320878551,21.284182507255686,-0.40525721487037325,3.0,88.516437
632,21.419750548703174,0.6469301674129093,21.555318590150662,-1.04720285321009,-4.0,-118.021916
633,21.453642559065045,1.2682853594751224,21.589210600512533,-1.5714546368595137,-4.0,-118.021916
634,21.487534569426916,1.61838995128942,21.3858585383413,1.8640961449886184,3.0,88.516437
635,21.52142657978879,1.6389918856453423,21.419750548703174,1.870186553691002,3.0,88.516437
636,21.555318590150662,1.3613781771416438,21.453642559065045,1.3903574945323796,3.0,88.516437
637,21.589210600512533,0.8588158262093973,21.487534569426916,0.5939907811170101,3.0,88.516437
638,21.623102610874408,0.21430590065320185,21.52142657978879,-0.2850178176898075,3.0,88.516437
639,21.65699462123628,-0.4750240461783983,21.758670652321896,0.5548987780123426,-3.0,-88.516437
640,21.69088663159815,-1.0779610719320947,21.792562662683768,1.409808682665442,-3.0,-88.516437
641,21.72477864196002,-1.4352597018109428,21.623102610874405,-1.7953396599527518,3.0,88.516437
642,21.758670652321896,-1.4145457662962773,21.65699462123628,-1.6776297022513027,3.0,88.516437
643,21.792562662683768,-0.9925075817854908,21.69088663159815,-1.1974283303686895,3.0,88.516437
644,21.82645467304564,-0.30586413547520075,21.72477864196002,-0.4002804473872954,3.0,88.516437
645,21.86034668340751,0.3833122764346222,21.962022714493127,-0.32285769020860366,-3.0,-88.516437
646,21.894238693769385,0.8083392797459629,21.995914724855,-1.0608264865345638,-3.0,-88.516437
647,21.928130704131256,0.8364017640146267,22.029806735216873,-1.5536628917922926,-3.0,-88.516437
648,21.962022714493127,0.5320626274994436,22.063698745578744,-1.7461292742459569,-3.0,-88.516437
649,21.995914724854998,0.10093881565710439,21.89423869376938,1.36005370977888,3.0,88.516437
650,22.029806735216873,-0.24637503819382559,21.928130704131256,0.5487139723479264,3.0,88.516437
651,22.063698745578744,-0.41578077871306013,22.16537477666436,-0.2832254380198231,-3.0,-88.516437
652,22.097590755940615,-0.4590807236559758,22.199266787026232,0.6826492408222454,-3.0,-88.516437
653,22.13148276630249,-0.5038043136306899,22.233158797388107,1.544611153819444,-3.0,-88.516437
654,22.16537477666436,-0.6426342893338706,22.26705080774998,2.040563491740371,-3.0,-88.516437
655,22.199266787026232,-0.8596064977245564,22.097590755940615,-1.6003917479487528,3.0,88.516437
656,22.233158797388104,-1.0368262706014755,22.131482766302486,-1.097171885090194,3.0,88.516437
657,22.26705080774998,-1.0299801997732934,22.368726838835595,0.6765674389016566,-3.0,-88.516437
658,22.30094281811185,-0.7587094902264219,22.402618849197466,-0.23578643559987822,-3.0,-88.516437
659,22.33483482847372,-0.25451883759958255,22.436510859559338,-1.0345250635638605,-3.0,-88.516437
660,22.36872683883559,0.3554423577945703,22.47040286992121,-1.5952046348821451,-3.0,-88.516437
661,22.402618849197466,0.9068360684724841,22.504294880283084,-1.8453948984702488,-3.0,-88.516437
662,22.436510859559338,1.2592205626621087,22.33483482847372,1.5057637499017762,3.0,88.516437
663,22.47040286992121,1.3321486747386202,22.572078901006826,-1.2410455572528698,-3.0,-88.516437
664,22.50429488028308,1.112551057367757,22.605970911368697,-0.4205318232978612,-3.0,-88.516437
665,22.538186890644955,0.6484143100403017,22.639862921730572,0.5550701154395719,-3.0,-88.516437
666,22.572078901006826,0.04528467093022665,22.673754932092443,1.4203594866453824,-3.0,-88.516437
667,22.605970911368697,-0.5360514411928989,22.707646942454314,1.9118156139707838,-3.0,-88.516437
668,22.63986292173057,-0.902809841668056,22.741538952816185,1.8825259024643421,-3.0,-88.516437
669,22.673754932092443,-0.8926027178852237,22.77543096317806,1.3619408161061686,-3.0,-88.516437
670,22.707646942454314,-0.4584690870250661,22.80932297353993,0.5246656521612918,-3.0,-88.516437
671,22.741538952816185,0.2774353962035246,22.843214983901802,-0.4020165532800659,-3.0,-88.516437
672,22.77543096317806,1.0539112385698295,22.877106994263677,-1.2241261511706314,-3.0,-88.516437
673,22.80932297353993,1.5847692398193962,22.91099900462555,-1.8107202567340168,-3.0,-88.516437
674,22.843214983901802,1.692829145665976,22.94489101498742,-2.072627959698202,-3.0,-88.516437
675,22.877106994263674,1.379684087743329,22.97878302534929,-1.93929308366656,-3.0,-88.516437
676,22.91099900462555,0.7919045521395544,23.012675035711165,-1.378066495834798,-3.0,-88.516437
677,22.94489101498742,0.11962337714593857,23.046567046073037,-0.45096238455968607,-3.0,-88.516437
678,22.97878302534929,-0.4930847421219259,23.080459056434908,0.6458684362789963,-3.0,-88.516437
679,23.012675035711162,-0.9709669589301924,23.11435106679678,1.6167084994410676,-3.0,-88.516437
680,23.046567046073037,-1.2745648514129657,23.148243077158654,2.1778605414364978,-3.0,-88.516437
681,23.080459056434908,-1.3664208199196382,23.182135087520525,2.1834332938570373,-3.0,-88.516437
682,23.11435106679678,-1.2169709707088474,23.216027097882396,1.6831235644023712,-3.0,-88.516437
683,23.14824307715865,-0.8412028406570589,23.012675035711162,-1.3780664958348952,4.0,118.021916
684,23.182135087520525,-0.3241094424195887,23.283811118606142,-0.001204235213494379,-3.0,-88.516437
685,23.216027097882396,0.19661799038462768,23.317703128968013,-0.7721127533097026,-3.0,-88.516437
686,23.249919108244267,0.5836041607386099,23.351595139329884,-1.3450267261905382,-3.0,-88.516437
687,23.28381111860614,0.7516796753743614,23.385487149691755,-1.6707563540399086,-3.0,-88.516437
688,23.317703128968013,0.6851479749284867,23.41937916005363,-1.6926993443339091,-3.0,-88.516437
689,23.351595139329884,0.417339204228497,23.216027097882396,1.6831235644023712,4.0,118.021916
690,23.385487149691755,-0.0003114535450527628,23.249919108244267,0.8760429346093396,4.0,118.021916
691,23.41937916005363,-0.5084401009856275,23.521055191139247,0.30780893405735704,-3.0,-88.516437
692,23.4532711704155,-1.0247063027862886,23.521055191139247,0.30780893405735704,-2.0,-59.010958
693,23.487163180777372,-1.43127364845076,23.55494720150112,1.2373593148411064,-2.0,-59.010958
694,23.521055191139244,-1.5960444925333652,23.58883921186299,1.8514723559575175,-2.0,-59.010958
695,23.55494720150112,-1.4275570766664627,23.622731222224864,1.95284761346533,-2.0,-59.010958
696,23.58883921186299,-0.9283913305718312,23.4532711704155,-1.3498712338123997,4.0,118.021916
697,23.62273122222486,-0.20714909297551484,23.487163180777372,-0.6406302788399304,4.0,118.021916
698,23.656623232586732,0.5620143252529545,23.724407253310478,-0.09650766570954025,-2.0,-59.010958
699,23.690515242948607,1.206502635434006,23.758299263672352,-0.8685886696663109,-2.0,-59.010958
700,23.724407253310478,1.608706263224987,23.792191274034224,-1.4427259161205026,-2.0,-59.010958
701,23.75829926367235,1.72225558343979,23.826083284396095,-1.7826395204375811,-2.0,-59.010958
702,23.79219127403422,1.5571305781173403,23.656623232586732,1.5356685686714555,4.0,118.021916
703,23.826083284396095,1.1569643532231346,23.690515242948607,0.7712873635349139,4.0,118.021916
704,23.859975294757966,0.5884846112308476,23.927759315481712,-0.9701221809046625,-2.0,-59.010958
705,23.893867305119837,-0.05398446442321354,23.961651325843583,-0.043964659460103354,-2.0,-59.010958
706,23.927759315481712,-0.6436216389427463,23.995543336205458,0.9737353224053209,-2.0,-59.010958
707,23.961651325843583,-1.0355917972237818,24.02943534656733,1.7852745428281094,-2.0,-59.010958
708,23.995543336205454,-1.1091876737846185,23.859975294757966,-1.8533238268282712,4.0,118.021916
709,24.029435346567325,-0.8251223591398573,23.893867305119837,-1.595156603486731,4.0,118.021916
710,24.0633273569292,-0.2665365619327349,23.927759315481712,-0.9701221809046625,4.0,118.021916
711,24.09721936729107,0.3717111200475684,23.961651325843583,-0.043964659460103354,4.0,118.021916
712,24.131111377652942,0.8572136156938298,24.19889539837669,-0.4435395905013287,-2.0,-59.010958
713,24.165003388014814,1.0252129780265722,24.23278740873856,-1.155976472621411,-2.0,-59.010958
714,24.19889539837669,0.852846503845832,24.266679419100434,-1.653976738752958,-2.0,-59.010958
715,24.23278740873856,0.4558522451015343,24.300571429462305,-1.894445503436834,-2.0,-59.010958
716,24.26667941910043,0.011839054074729684,24.334463439824177,-1.810938202661185,-2.0,-59.010958
717,24.300571429462302,-0.3389217653621109,24.368355450186048,-1.3366902250668162,-2.0,-59.010958
718,24.334463439824177,-0.553244340279573,24.402247460547922,-0.4855935759294463,-2.0,-59.010958
719,24.368355450186048,-0.6732379695902476,24.436139470909794,0.5790369141321235,-2.0,-59.010958
720,24.40224746054792,-0.7607675963676921,24.470031481271665,1.5622500590994715,-2.0,-59.010958
721,24.43613947090979,-0.831533152737469,24.503923491633536,2.154277403926258,-2.0,-59.010958
722,24.470031481271665,-0.8380927721172289,24.53781550199541,2.1784631549841116,-2.0,-59.010958
723,24.503923491633536,-0.7108033703561454,24.571707512357282,1.671678488025731,-2.0,-59.010958
724,24.537815501995407,-0.4200654594052102,24.605599522719153,0.8452589747207065,-2.0,-59.010958
725,24.571707512357282,-0.0088258255820341,24.639491533081028,-0.03984921219898812,-2.0,-59.010958
726,24.605599522719153,0.42756054027957885,24.6733835434429,-0.7940760111867964,-2.0,-59.010958
727,24.639491533081024,0.7926991664210927,24.70727555380477,-1.3405110809262957,-2.0,-59.010958
728,24.673383543442895,1.029443567250011,24.74116756416664,-1.6680994960143827,-2.0,-59.010958
729,24.70727555380477,1.122945273995308,24.571707512357282,1.671678488025731,4.0,118.021916
730,24.74116756416664,1.073769722809912,24.808951584890387,-1.5421514599040094,-2.0,-59.010958
731,24.775059574528512,0.8718804219793485,24.84284359525226,-0.9769969173066754,-2.0,-59.010958
732,24.808951584890384,0.5012530602645131,24.87673560561413,-0.10843748089792012,-2.0,-59.010958
733,24.84284359525226,-0.02097705740438477,24.910627615976004,0.8675989181222661,-2.0,-59.010958
734,24.87673560561413,-0.6023244359319493,24.944519626337875,1.6567916706476702,-2.0,-59.010958
735,24.910627615976,-1.0765245722218497,24.978411636699747,1.9962330125161967,-2.0,-59.010958
736,24.944519626337872,-1.2691185405209864,25.012303647061618,1.782274385262491,-2.0,-59.010958
737,24.978411636699747,-1.093621549104009,25.046195657423493,1.111513241331657,-2.0,-59.010958
738,25.012303647061618,-0.6107950326580849,25.080087667785364,0.21378768576250154,-2.0,-59.010958
739,25.04619565742349,-0.0040073750328461135,25.113979678147235,-0.6668500762021903,-2.0,-59.010958
740,25.08008766778536,0.5155050380158682,25.147871688509106,-1.3589408384019663,-2.0,-59.010958
741,25.113979678147235,0.8092491194620265,25.18176369887098,-1.7732092639252315,-2.0,-59.010958
742,25.147871688509106,0.8536048026001415,25.215655709232852,-1.8593370521321906,-2.0,-59.010958
743,25.181763698870977,0.7061408951476581,25.249547719594723,-1.5747883766308186,-2.0,-59.010958
744,25.215655709232852,0.4344970605283824,25.283439729956598,-0.9098213321147031,-2.0,-59.010958
745,25.249547719594723,0.06909920367461245,25.31733174031847,0.04950384169689224,-2.0,-59.010958
746,25.283439729956594,-0.3841892821763126,25.35122375068034,1.0868296157083737,-2.0,-59.010958
747,25.317331740318465,-0.888094501547082,25.622359833575313,-1.884569637735758,-9.0,-265.549311
748,25.35122375068034,-1.3300474254254107,25.656251843937188,-2.131219321150408,-9.0,-265.549311
749,25.38511576104221,-1.5396225512266426,25.69014385429906,-2.0091107426538666,-9.0,-265.549311
750,25.419007771404083,-1.3698813163273542,25.48679179212783,1.3180802394064939,-2.0,-59.010958
751,25.452899781765954,-0.7939444608215143,25.5206838024897,0.37928846544399053,-2.0,-59.010958
752,25.48679179212783,0.04915270413000063,25.554575812851574,-0.5612372974206714,-2.0,-59.010958
753,25.5206838024897,0.8956627649967659,25.588467823213445,-1.3426916507505318,-2.0,-59.010958
754,25.55457581285157,1.4669850879130206,25.622359833575317,-1.8845696377358148,-2.0,-59.010958
755,25.588467823213442,1.5883904409200365,25.656251843937188,-2.131219321150408,-2.0,-59.010958
756,25.622359833575317,1.2539112834908646,25.690143854299063,-2.0091107426538084,-2.0,-59.010958
757,25.656251843937188,0.6083878110850646,25.724035864660934,-1.4526325996532345,-2.0,-59.010958
758,25.69014385429906,-0.13416818338307313,25.757927875022805,-0.48787701067859796,-2.0,-59.010958
759,25.724035864660934,-0.7834614917605954,25.79181988538468,0.6986720839934379,-2.0,-59.010958
760,25.757927875022805,-1.2263742316296087,25.82571189574655,1.7828578417796854,-2.0,-59.010958
761,25.791819885384676,-1.4238489898184339,25.825711895746547,1.7828578417796177,-1.0,-29.505479
762,25.825711895746547,-1.3747397059852942,25.85960390610842,2.4282484833686775,-1.0,-29.505479
763,25.859603906108422,-1.0886220549559253,25.893495916470293,2.442423297778404,-1.0,-29.505479
764,25.893495916470293,-0.5915111483021005,25.96127993719404,0.9084326145867531,-2.0,-59.010958
765,25.927387926832164,0.05085656948514905,25.961279937194035,0.9084326145868624,-1.0,-29.505479
766,25.961279937194035,0.729907922855111,26.232416020089012,0.17479750643982325,-8.0,-236.043832
767,25.99517194755591,1.3289232959149022,26.266308030450887,1.3516852802708696,-8.0,-236.043832
768,26.02906395791778,1.769837409045887,26.300200040812758,2.2077403727750364,-8.0,-236.043832
769,26.062955968279653,2.027660343100925,26.33409205117463,2.4747228841847595,-8.0,-236.043832
770,26.096847978641524,2.097205426237851,26.3679840615365,2.0979104791218286,-8.0,-236.043832
771,26.1307399890034,1.9463595504628157,26.401876071898375,1.2455264567093218,-8.0,-236.043832
772,26.16463199936527,1.511069762186722,26.435768082260246,0.20312641651415392,-8.0,-236.043832
773,26.19852400972714,0.7565498590937144,26.02906395791778,-1.0523451971292381,5.0,147.527395
774,26.232416020089012,-0.23216083962120565,26.266308030450883,1.3516852802707464,-1.0,-29.505479
775,26.266308030450887,-1.2097349322097684,26.77468818587897,2.458469948418597,-15.0,-442.58218500000004
776,26.300200040812758,-1.8400704111197614,26.80858019624084,2.3987858033111875,-15.0,-442.58218500000004
777,26.33409205117463,-1.8578008733437217,26.16463199936527,-1.787754169953882,5.0,147.527395
778,26.367984061536504,-1.2268804429273832,26.198524009727144,-0.9666095727719916,5.0,147.527395
779,26.401876071898375,-0.18994516347169188,26.232416020089016,0.17479750643994663,5.0,147.527395
780,26.435768082260246,0.8325861730240768,26.469660092622117,-0.7680429254627222,-1.0,-29.505479
781,26.469660092622117,1.4400934400000374,26.50355210298399,-1.5151873841414034,-1.0,-29.505479
782,26.503552102983992,1.4321323636968208,26.537444113345863,-1.9816792631098938,-1.0,-29.505479
783,26.537444113345863,0.8697685213421364,26.571336123707734,-2.1370037726403313,-1.0,-29.505479
784,26.571336123707734,-0.0066404836783835386,26.605228134069606,-1.9283587226186156,-1.0,-29.505479
785,26.605228134069606,-0.9344861451428065,26.639120144431477,-1.3074019017510585,-1.0,-29.505479
786,26.63912014443148,-1.7476204122249361,26.67301215479335,-0.3143771990129356,-1.0,-29.505479
787,26.67301215479335,-2.3830399800976094,26.706904165155223,0.8571408452755859,-1.0,-29.505479
788,26.706904165155223,-2.7975980144928743,26.740796175517094,1.8879179124663006,-1.0,-29.505479
789,26.740796175517094,-2.892860430363233,26.774688185878965,2.458469948418537,-1.0,-29.505479
790,26.77468818587897,-2.5369494269617237,26.80858019624084,2.3987858033111875,-1.0,-29.505479
791,26.80858019624084,-1.6805699003509285,26.84247220660271,1.7640993607653899,-1.0,-29.505479
792,26.84247220660271,-0.467605836097636,26.876364216964582,0.7888652578372922,-1.0,-29.505479
793,26.876364216964582,0.7718465021984385,26.910256227326453,-0.24350068027856697,-1.0,-29.505479
794,26.910256227326457,1.6681023443925198,26.944148237688328,-1.1236927809976418,-1.0,-29.505479
795,26.944148237688328,2.0040808749096857,26.9780402480502,-1.7570279587949955,-1.0,-29.505479
796,26.9780402480502,1.8183960205152057,27.01193225841207,-2.1154287916793653,-1.0,-29.505479
797,27.011932258412074,1.3515064628895026,27.045824268773945,-2.162912268256301,-1.0,-29.505479
798,27.045824268773945,0.8809425884621188,27.079716279135816,-1.83214142617437,-1.0,-29.505479
799,27.079716279135816,0.5628386368114324,27.113608289497687,-1.081686688145765,-1.0,-29.505479
800,27.113608289497687,0.3800325091694236,27.14750029985956,0.010519168501845533,-1.0,-29.505479
801,27.147500299859562,0.21413953226531862,27.181392310221433,1.2032030234819628,-1.0,-29.505479
802,27.181392310221433,-0.02537492449481305,27.215284320583304,2.154704550179696,-1.0,-29.505479
803,27.215284320583304,-0.3109696489019586,27.249176330945176,2.5706224237963373,-1.0,-29.505479
804,27.249176330945176,-0.5036601545634892,27.283068341307047,2.344610276217748,-1.0,-29.505479
805,27.28306834130705,-0.44460448903904615,27.31696035166892,1.5988255502501845,-1.0,-29.505479
806,27.31696035166892,-0.06584186588557392,27.350852362030793,0.5999820035996196,-1.0,-29.505479
807,27.350852362030793,0.5534633761803569,27.384744372392664,-0.3857941230027538,-1.0,-29.505479
808,27.384744372392664,1.220491834709128,27.418636382754535,-1.1983548087876628,-1.0,-29.505479
809,27.41863638275454,1.7279703577153023,27.45252839311641,-1.7870370306801546,-1.0,-29.505479
810,27.45252839311641,1.952481771377938,27.48642040347828,-2.1330854657994043,-1.0,-29.505479
811,27.48642040347828,1.888219748959187,27.520312413840152,-2.1743719206344356,-1.0,-29.505479
812,27.520312413840156,1.6022909726111532,27.554204424202027,-1.8101733096301675,-1.0,-29.505479
813,27.554204424202027,1.1596759691557992,27.588096434563898,-0.9935780213351476,-1.0,-29.505479
814,27.588096434563898,0.5882245903589016,27.62198844492577,0.161770552148173,-1.0,-29.505479
815,27.62198844492577,-0.08772738018784335,27.65588045528764,1.3592674386121522,-1.0,-29.505479
816,27.655880455287644,-0.7871340267256596,27.689772465649515,2.2238932199975756,-1.0,-29.505479
817,27.689772465649515,-1.3588738933556839,27.723664476011386,2.479207017521953,-1.0,-29.505479
818,27.723664476011386,-1.647863355914465,27.757556486373257,2.081928518164437,-1.0,-29.505479
819,27.757556486373257,-1.596856161536803,27.79144849673513,1.2256899068605405,-1.0,-29.505479
820,27.791448496735132,-1.2993630958498021,27.825340507097003,0.2179632243252041,-1.0,-29.505479
821,27.825340507097003,-0.9527779707502861,27.859232517458874,-0.6799134357928213,-1.0,-29.505479
822,27.859232517458874,-0.7406904553199722,27.893124527820746,-1.343611049397377,-1.0,-29.505479
823,27.893124527820746,-0.7301122852741216,27.927016538182617,-1.7622651855429017,-1.0,-29.505479
824,27.92701653818262,-0.8550511899901249,27.96090854854449,-1.943475424363203,-1.0,-29.505479
825,27.96090854854449,-0.9887197365365387,27.994800558906363,-1.8399286202701906,-1.0,-29.505479
826,27.994800558906363,-1.0430503956011816,28.028692569268234,-1.367081049372175,-1.0,-29.505479
827,28.028692569268234,-1.0229951456890345,28.062584579630105,-0.5024768196463258,-1.0,-29.505479
828,28.06258457963011,-1.0038216503539024,28.09647658999198,0.6166355017688678,-1.0,-29.505479
829,28.09647658999198,-1.0561529190362526,28.13036860035385,1.6901912593004123,-1.0,-29.505479
830,28.13036860035385,-1.1760941114407883,28.164260610715722,2.3722502619925856,-1.0,-29.505479
831,28.164260610715726,-1.2682725075256611,28.198152621077597,2.439714104966545,-1.0,-29.505479
832,28.198152621077597,-1.1895172806174434,28.232044631439468,1.9000831821360298,-1.0,-29.505479
833,28.232044631439468,-0.8211623545340188,28.26593664180134,0.967936156094752,-1.0,-29.505479
834,28.26593664180134,-0.12635525406710355,28.29982865216321,-0.06528343682791682,-1.0,-29.505479
835,28.299828652163214,0.8311663886382805,28.333720662525085,-0.9719956135544083,-1.0,-29.505479
836,28.333720662525085,1.9011528282169774,28.367612672886956,-1.6478488489038918,-1.0,-29.505479
837,28.367612672886956,2.876736715366758,28.401504683248827,-2.068892894018971,-1.0,-29.505479
838,28.401504683248827,3.534327082311386,28.4353966936107,-2.2059844915034845,-1.0,-29.505479
839,28.435396693610702,3.689027834331894,28.469288703972573,-1.9848708521618228,-1.0,-29.505479
840,28.469288703972573,3.2604754248503838,28.503180714334444,-1.3372904786904316,-1.0,-29.505479
841,28.503180714334444,2.320738526748737,28.537072724696316,-0.3062978254966007,-1.0,-29.505479
842,28.537072724696316,1.0908349660304273,28.570964735058187,0.8873384334466676,-1.0,-29.505479
843,28.57096473505819,-0.12322596714662552,28.60485674542006,1.8929133164084373,-1.0,-29.505479
844,28.60485674542006,-1.0307708261347857,28.638748755781933,2.383253060838114,-1.0,-29.505479
845,28.638748755781933,-1.4519203832701795,28.672640766143804,2.219798474128986,-1.0,-29.505479
846,28.672640766143804,-1.372216116240338,28.706532776505675,1.5183067462389834,-1.0,-29.505479
847,28.70653277650568,-0.9388476569328672,28.74042478686755,0.57275854441989,-1.0,-29.505479
848,28.74042478686755,-0.4012373434008845,28.74042478686755,0.57275854441989,0.0,0.0
849,28.77431679722942,-0.016334988545065928,28.77431679722942,-0.305452833866872,0.0,0.0
850,28.808208807591296,0.047668428925479144,28.808208807591296,-0.9245997318055633,0.0,0.0
851,28.842100817953167,-0.2285603629774011,28.842100817953167,-1.248770838047087,0.0,0.0
852,28.875992828315038,-0.7183875457903182,28.875992828315038,-1.336049158639005,0.0,0.0
853,28.90988483867691,-1.216127737742491,28.90988483867691,-1.2462845886486245,0.0,0.0
854,28.943776849038784,-1.537070282397099,28.943776849038784,-0.9928644219474985,0.0,0.0
855,28.977668859400655,-1.5984319839005758,28.977668859400655,-0.5661798113001457,0.0,0.0
856,29.011560869762526,-1.4362100146730068,29.011560869762526,0.003834480276033008,0.0,0.0
857,29.045452880124397,-1.1511661323284077,29.045452880124397,0.6076733431332045,0.0,0.0
858,29.079344890486272,-0.8250841769266494,29.079344890486272,1.0791543097764371,0.0,0.0
859,29.113236900848143,-0.470473490008277,29.113236900848143,1.2699952598344233,0.0,0.0
860,29.147128911210014,-0.05042636473298461,29.147128911210014,1.1243992595708168,0.0,0.0
861,29.181020921571886,0.4530473797192797,29.181020921571886,0.7029946319424767,0.0,0.0
862,29.21491293193376,0.9843467249288488,29.21491293193376,0.14405432465062054,0.0,0.0
863,29.24880494229563,1.42086572592215,29.24880494229563,-0.40605795792412425,0.0,0.0
864,29.282696952657503,1.6344179959004828,29.282696952657503,-0.8449085670412811,0.0,0.0
865,29.316588963019377,1.5594953298553518,29.316588963019377,-1.120905016596753,0.0,0.0
866,29.35048097338125,1.2232967849407452,29.35048097338125,-1.2064815543089529,0.0,0.0
867,29.38437298374312,0.7250986609781653,29.38437298374312,-1.0747710695300252,0.0,0.0
868,29.41826499410499,0.18372288121663843,29.41826499410499,-0.7094718315935524,0.0,0.0
869,29.452157004466866,-0.31212905180601747,29.452157004466866,-0.14323544601827087,0.0,0.0
870,29.486049014828737,-0.7187695376211228,29.486049014828737,0.512290279841391,0.0,0.0
871,29.519941025190608,-1.0118103875493538,29.519941025190608,1.0826402646491053,0.0,0.0
872,29.55383303555248,-1.150434221725893,29.55383303555248,1.3970035959394584,0.0,0.0
873,29.587725045914354,-1.074892325031892,29.587725045914354,1.367309643324791,0.0,0.0
874,29.621617056276225,-0.750175850423812,29.621617056276225,1.027788688724235,0.0,0.0
875,29.655509066638096,-0.22044596387581422,29.655509066638096,0.5086703645739983,0.0,0.0
876,29.689401076999967,0.3802230808380125,29.689401076999967,-0.03633585140675665,0.0,0.0
877,29.723293087361842,0.88323937586062,29.723293087361842,-0.49864097132807156,0.0,0.0
878,29.757185097723713,1.1728988089871566,29.757185097723713,-0.8366188479414164,0.0,0.0
879,29.791077108085585,1.2403621130106235,29.58772504591435,1.3673096433247942,6.0,177.032874
880,29.824969118447456,1.1608994969657067,29.62161705627622,1.0277886887242704,6.0,177.032874
881,29.85886112880933,1.01063772420339,29.655509066638096,0.5086703645739983,6.0,177.032874
882,29.8927531391712,0.7903049719542301,29.689401076999967,-0.03633585140675665,6.0,177.032874
883,29.926645149533073,0.42451606029710376,29.72329308736184,-0.4986409713280231,6.0,177.032874
884,29.960537159894947,-0.1517238134952225,29.960537159894947,0.5132068674022898,0.0,0.0
885,29.99442917025682,-0.8835926489111415,29.99442917025682,1.0384211183125671,0.0,0.0
886,30.02832118061869,-1.560377044736671,30.02832118061869,1.2922095025753582,0.0,0.0
887,30.06221319098056,-1.9021592716614426,30.06221319098056,1.19989954626615,0.0,0.0
888,30.096105201342436,-1.7240085315771514,30.096105201342436,0.8141206097670665,0.0,0.0
889,30.129997211704307,-1.0658430556522496,30.129997211704307,0.27517802125493634,0.0,0.0
890,30.163889222066178,-0.19326801300079344,30.163889222066178,-0.2668278874959358,0.0,0.0
891,30.19778123242805,0.5370866006886618,30.19778123242805,-0.713001653289778,0.0,0.0
892,30.231673242789924,0.8632139929241376,30.231673242789924,-1.0242288537434276,0.0,0.0
893,30.265565253151795,0.7412472765336025,30.265565253151795,-1.1858268049092984,0.0,0.0
894,30.299457263513666,0.3403734715916315,30.299457263513666,-1.1702374242589733,0.0,0.0
895,30.333349273875537,-0.07571176117950261,30.333349273875537,-0.9374556957177297,0.0,0.0
896,30.367241284237412,-0.3036456004014353,30.367241284237412,-0.47739617150585045,0.0,0.0
897,30.401133294599283,-0.30198679536095735,30.401133294599283,0.14180306989536504,0.0,0.0
898,30.435025304961155,-0.18579055685253687,30.435025304961155,0.7669122031613048,0.0,0.0
899,30.468917315323026,-0.12496063812351352,30.468917315323026,1.212713795050218,0.0,0.0
900,30.5028093256849,-0.216951421661321,30.5028093256849,1.3466322664180483,0.0,0.0
901,30.53670133604677,-0.4183200231654316,30.53670133604677,1.1496523209860698,0.0,0.0
902,30.570593346408643,-0.5738930690590155,30.604485356770514,0.18269849746168432,-1.0,-29.505479
903,30.604485356770518,-0.5144119688300733,30.63837736713239,-0.3210987832849176,-1.0,-29.505479
904,30.63837736713239,-0.15747418207838096,30.67226937749426,-0.7299841526357073,-1.0,-29.505479
905,30.67226937749426,0.44096894566712674,30.70616138785613,-1.0141992459313558,-1.0,-29.505479
906,30.70616138785613,1.101560434569898,30.502809325684897,1.3466322664180344,6.0,177.032874
907,30.740053398218006,1.5898596924842776,30.53670133604677,1.1496523209860698,6.0,177.032874
908,30.773945408579877,1.7084533073106616,30.570593346408643,0.7138855426240494,6.0,177.032874
909,30.807837418941748,1.376675329342544,30.604485356770514,0.18269849746168432,6.0,177.032874
910,30.84172942930362,0.6662472702943846,30.638377367132385,-0.32109878328486474,6.0,177.032874
911,30.875621439665494,-0.22092928705800463,30.67226937749426,-0.7299841526357073,6.0,177.032874
912,30.909513450027365,-1.0229198843043334,30.943405460389236,1.3633917529410502,-1.0,-29.505479
913,30.943405460389236,-1.50878320186541,30.977297470751108,1.2544235092049583,-1.0,-29.505479
914,30.977297470751108,-1.5570806469963863,31.01118948111298,0.8300004693044423,-1.0,-29.505479
915,31.011189481112982,-1.191214352720492,31.248433553646088,-0.9041981883747973,-7.0,-206.538353
916,31.045081491474853,-0.5549913886572425,31.28232556400796,-0.4177935478925363,-7.0,-206.538353
917,31.078973501836725,0.15991968646834132,31.31621757436983,0.22253269668069464,-7.0,-206.538353
918,31.1128655121986,0.7925076614095143,31.350109584731705,0.8611547290406716,-7.0,-206.538353
919,31.14675752256047,1.2495313593891013,31.384001595093576,1.3108136167927635,-7.0,-206.538353
920,31.18064953292234,1.4875873616663935,31.417893605455447,1.437350523363618,-7.0,-206.538353
921,31.214541543284213,1.4738782501374925,31.451785615817318,1.220410201479562,-7.0,-206.538353
922,31.248433553646088,1.1751525777587766,31.485677626179193,0.7521199215642962,-7.0,-206.538353
923,31.28232556400796,0.5921395399531548,31.519569636541064,0.18081677037293475,-7.0,-206.538353
924,31.31621757436983,-0.19082659986359699,31.553461646902935,-0.3573791798148163,-7.0,-206.538353
925,31.3501095847317,-0.9898042810903693,31.587353657264806,-0.7758186669859367,-7.0,-206.538353
926,31.384001595093576,-1.566452598502317,31.62124566762668,-1.0309203489837513,-7.0,-206.538353
927,31.417893605455447,-1.7234407196420682,31.451785615817318,1.220410201479562,-1.0,-29.505479
928,31.451785615817318,-1.4057202446860335,31.48567762617919,0.752119921564356,-1.0,-29.505479
929,31.48567762617919,-0.7481002653138288,31.51956963654106,0.1808167703729947,-1.0,-29.505479
930,31.519569636541064,-0.02665995350918244,31.553461646902935,-0.3573791798148163,-1.0,-29.505479
931,31.553461646902935,0.4742307019083146,31.587353657264806,-0.7758186669859367,-1.0,-29.505479
932,31.587353657264806,0.6056546858389595,31.621245667626678,-1.0309203489837446,-1.0,-29.505479
933,31.621245667626678,0.41712826871286385,31.65513767798855,-1.095333504253516,-1.0,-29.505479
934,31.655137677988552,0.0975009634230546,31.689029688350423,-0.9465383492991141,-1.0,-29.505479
935,31.689029688350423,-0.1620612658991378,31.722921698712295,-0.587171682791602,-1.0,-29.505479
936,31.722921698712295,-0.28429642446086534,31.756813709074166,-0.07836096897730938,-1.0,-29.505479
937,31.75681370907417,-0.32331450995294025,31.79070571943604,0.4520606105255166,-1.0,-29.505479
938,31.79070571943604,-0.3836790829584919,31.82459772979791,0.8485759867950537,-1.0,-29.505479
939,31.82459772979791,-0.5124081662809211,31.858489740159783,0.9961920126377627,-1.0,-29.505479
940,31.858489740159783,-0.646033312378322,31.892381750521654,0.8714596150524385,-1.0,-29.505479
941,31.892381750521658,-0.6464025343800426,31.92627376088353,0.5410509866077327,-1.0,-29.505479
942,31.92627376088353,-0.3944268244556671,31.9601657712454,0.11379379938722906,-1.0,-29.505479
943,31.9601657712454,0.12286033790766296,31.99405778160727,-0.3139930172591531,-1.0,-29.505479
944,31.99405778160727,0.7832940388143524,32.02794979196914,-0.6812379778718514,-1.0,-29.505479
945,32.02794979196914,1.3700631882072825,32.06184180233102,-0.9460168060835907,-1.0,-29.505479
946,32.06184180233102,1.658289345899356,32.09573381269289,-1.0578025214998161,-1.0,-29.505479
947,32.09573381269289,1.5088799698345658,32.129625823054766,-0.9547440828664606,-1.0,-29.505479
948,32.12962582305476,0.93186883654778,32.163517833416634,-0.6001467534588706,-1.0,-29.505479
949,32.163517833416634,0.09419319586817017,32.19740984377851,-0.03463425506501956,-1.0,-29.505479
950,32.1974098437785,-0.7323645267572135,32.231301854140376,0.6019966846448392,-1.0,-29.505479
951,32.231301854140376,-1.2657434874214932,32.26519386450225,1.110591343941735,-1.0,-29.505479
952,32.26519386450225,-1.3182677884039504,32.299085874864126,1.3208126150016577,-1.0,-29.505479
953,32.29908587486412,-0.8726299415536056,32.33297788522599,1.1742686887739613,-1.0,-29.505479
954,32.33297788522599,-0.09442723435177973,32.36686989558787,0.747765237002376,-1.0,-29.505479
955,32.36686989558787,0.7329490088630787,32.40076190594974,0.20238866260962957,-1.0,-29.505479
956,32.400761905949736,1.3270663676125565,32.43465391631161,-0.3043538727634143,-1.0,-29.505479
957,32.43465391631161,1.5191497972964216,32.468545926673485,-0.6832419004397745,-1.0,-29.505479
958,32.468545926673485,1.3006072817505376,32.50243793703536,-0.9172619644226346,-1.0,-29.505479
959,32.50243793703535,0.7871402604248314,32.53632994739723,-1.016016318041974,-1.0,-29.505479
960,32.53632994739723,0.13901545504551574,32.5702219577591,-0.9686087060823512,-1.0,-29.505479
961,32.570221957759095,-0.503650566585506,32.60411396812097,-0.7396599800685506,-1.0,-29.505479
962,32.60411396812097,-1.0387425934577001,32.638005978482845,-0.3134976761415616,-1.0,-29.505479
963,32.638005978482845,-1.3875053774505084,32.67189798884472,0.25230909046586036,-1.0,-29.505479
964,32.67189798884471,-1.486804332051847,32.70578999920659,0.8151518965778525,-1.0,-29.505479
965,32.70578999920659,-1.3112502370137833,32.73968200956846,1.1977714500473655,-1.0,-29.505479
966,32.73968200956846,-0.9075975518068798,32.77357401993034,1.2719256777090222,-1.0,-29.505479
967,32.77357401993033,-0.4010995480358852,32.807466030292204,1.0192328534827255,-1.0,-29.505479
968,32.807466030292204,0.047594986498990716,32.84135804065408,0.5304575651756702,-1.0,-29.505479
969,32.84135804065407,0.31535538245608,32.875250051015946,-0.049289199059887184,-1.0,-29.505479
970,32.875250051015946,0.3734885444970789,33.14638613391092,0.7328997977598107,-8.0,-236.043832
971,32.90914206137782,0.28987488550623985,33.1802781442728,1.1333378189659589,-8.0,-236.043832
972,32.94303407173969,0.17215686307190625,33.214170154634665,1.2304021199163304,-8.0,-236.043832
973,32.97692608210156,0.08993324876524263,32.807466030292204,1.0192328534827255,5.0,147.527395
974,33.01081809246344,0.03367859328013715,33.07860211318718,-0.4714926132608248,-2.0,-59.010958
975,33.044710102825306,-0.056421115389929354,33.11249412354905,0.14112534655889486,-2.0,-59.010958
976,33.07860211318718,-0.2141076740586163,33.14638613391092,0.7328997977598107,-2.0,-59.010958
977,33.112494123549055,-0.38673022361593773,33.1802781442728,1.1333378189659589,-2.0,-59.010958
978,33.14638613391092,-0.444918558955022,33.214170154634665,1.2304021199163304,-2.0,-59.010958
979,33.1802781442728,-0.26280102631587765,33.01081809246344,-1.199910415195295,5.0,147.527395
980,33.214170154634665,0.18560581584864688,33.044710102825306,-0.9486091826548686,5.0,147.527395
981,33.24806216499654,0.7833141481133086,33.07860211318718,-0.4714926132608248,5.0,147.527395
982,33.281954175358415,1.314975842526221,33.34973819608216,-0.414231520173952,-2.0,-59.010958
983,33.31584618572028,1.5740451288697286,33.383630206444025,-0.7817706036739541,-2.0,-59.010958
984,33.34973819608216,1.4656288556998749,33.4175222168059,-0.9875380733618144,-2.0,-59.010958
985,33.38363020644403,1.0424672656271483,33.451414227167774,-0.9949577439912792,-2.0,-59.010958
986,33.4175222168059,0.4573370240991467,33.044710102825306,-0.9486091826548686,11.0,324.560269
987,33.451414227167774,-0.12902458319864035,33.07860211318718,-0.4714926132608248,11.0,324.560269
988,33.48530623752965,-0.618185581846612,33.112494123549055,0.14112534655902328,11.0,324.560269
989,33.51919824789152,-0.9793214817281758,33.58698226861526,0.7378648003273934,-2.0,-59.010958
990,33.55309025825339,-1.2035360074707793,33.62087427897713,1.0856971992110005,-2.0,-59.010958
991,33.58698226861526,-1.2630246592930006,33.214170154634665,1.2304021199163304,11.0,324.560269
992,33.62087427897713,-1.1189776781004948,33.451414227167774,-0.9949577439912792,5.0,147.527395
993,33.65476628933901,-0.7695703783487367,33.48530623752965,-0.7783084562704773,5.0,147.527395
994,33.688658299700876,-0.2881836495258615,33.51919824789152,-0.35087602733671935,5.0,147.527395
995,33.72255031006275,0.19010537755179488,34.23093046549083,-0.22513486633338786,-15.0,-442.58218500000004
996,33.756442320424625,0.5295881231108002,34.264822475852704,-0.5674590983649995,-15.0,-442.58218500000004
997,33.79033433078649,0.6580637613868914,34.29871448621457,-0.7889916936354149,-15.0,-442.58218500000004
998,33.82422634114837,0.5892430372592011,33.65476628933901,1.142152759986487,5.0,147.527395
999,33.858118351510235,0.39405233906447446,33.688658299700876,0.9070884296105748,5.0,147.527395
1000,33.89201036187211,0.14894483504577127,33.72255031006275,0.47503749048771343,5.0,147.527395
1001,33.925902372233985,-0.10033044845564362,33.99368639295773,-0.03139801399434777,-2.0,-59.010958
1002,33.95979438259585,-0.3390813458009794,34.027578403319595,0.5596875844854967,-2.0,-59.010958
1003,33.99368639295773,-0.5556156678431923,34.06147041368147,1.0146555031454727,-2.0,-59.010958
1004,34.0275784033196,-0.7118817633311815,34.095362424043344,1.1934788870155815,-2.0,-59.010958
1005,34.06147041368147,-0.7412139758877344,34.12925443440521,1.0592158667361666,-2.0,-59.010958
1006,34.095362424043344,-0.5823153440731024,33.925902372233985,-0.9578796584269911,5.0,147.527395
1007,34.12925443440522,-0.22843064951419748,33.95979438259586,-0.5819744359333608,5.0,147.527395
1008,34.16314644476709,0.24759593294450424,34.23093046549083,-0.22513486633338786,-2.0,-59.010958
1009,34.19703845512896,0.7177943187421254,34.264822475852704,-0.5674590983649995,-2.0,-59.010958
1010,34.23093046549083,1.0592163601223021,34.29871448621457,-0.7889916936354149,-2.0,-59.010958
1011,34.264822475852704,1.205858968168683,34.095362424043344,1.1934788870155815,5.0,147.527395
1012,34.29871448621458,1.1567363629856018,34.12925443440522,1.0592158667361384,5.0,147.527395
1013,34.332606496576446,0.9436124125900994,34.16314644476709,0.6877511883943832,5.0,147.527395
1014,34.36649850693832,0.5954493863174251,34.43428252766206,-0.17345707591575885,-2.0,-59.010958
1015,34.400390517300195,0.13460361697721296,34.46817453802394,0.32727126242003873,-2.0,-59.010958
1016,34.43428252766206,-0.394169391489283,34.502066548385805,0.774820516888625,-2.0,-59.010958
1017,34.46817453802394,-0.8947939526765456,34.29871448621458,-0.7889916936354614,5.0,147.527395
1018,34.502066548385805,-1.2282961545437705,34.332606496576446,-0.8819589582027221,5.0,147.527395
1019,34.53595855874768,-1.2677634961989181,34.36649850693832,-0.8230750355775815,5.0,147.527395
1020,34.569850569109555,-0.9704916328004349,34.400390517300195,-0.583966211833484,5.0,147.527395
1021,34.60374257947142,-0.41830402906056563,34.6376345898333,0.28327707237329425,-1.0,-29.505479
1022,34.6376345898333,0.20679405930071748,34.67152660019517,-0.16662969416623338,-1.0,-29.505479
1023,34.67152660019517,0.7023115585603533,34.70541861055705,-0.5513286357162492,-1.0,-29.505479
1024,34.70541861055704,0.9336911463101505,34.739310620918914,-0.8341235753039311,-1.0,-29.505479
1025,34.739310620918914,0.8795840653161806,34.569850569109555,0.9929142169483995,5.0,147.527395
1026,34.77320263128079,0.6124449682111767,34.60374257947143,0.7111490718664393,5.0,147.527395
1027,34.80709464164266,0.2366110799033078,34.6376345898333,0.28327707237329425,5.0,147.527395
1028,34.84098665200453,-0.16866495391664185,34.874878662366406,-0.5643717624284499,-1.0,-29.505479
1029,34.8748786623664,-0.5635929927993626,34.908770672728274,-0.08501151259431557,-1.0,-29.505479
1030,34.908770672728274,-0.9176409163197314,34.739310620918914,-0.8341235753039311,5.0,147.527395
1031,34.94266268309015,-1.1692730711745982,34.77320263128079,-1.0025767587936192,5.0,147.527395
1032,34.976554693452016,-1.2217615657260026,34.80709464164266,-1.0349347880250308,5.0,147.527395
1033,35.01044670381389,-0.993861013969668,34.84098665200453,-0.8950252329936529,5.0,147.527395
1034,35.044338714175765,-0.4929081281734985,35.07823072453764,0.5846332657930027,-1.0,-29.505479
1035,35.07823072453763,0.15248864292147307,35.11212273489951,0.20614016099541818,-1.0,-29.505479
1036,35.11212273489951,0.7379955944074523,35.14601474526138,-0.14764376679534494,-1.0,-29.505479
1037,35.146014745261375,1.0832479057179234,35.17990675562325,-0.41426011690070147,-1.0,-29.505479
1038,35.17990675562325,1.1190376214462456,35.213798765985125,-0.5660871148715683,-1.0,-29.505479
1039,35.213798765985125,0.9065379078120115,35.247690776347,-0.5813822685201844,-1.0,-29.505479
1040,35.24769077634699,0.5823879723985745,35.28158278670887,-0.43068109314128283,-1.0,-29.505479
1041,35.28158278670887,0.2716295573495112,35.31547479707074,-0.0984509416997999,-1.0,-29.505479
1042,35.31547479707074,0.0276875786466931,35.34936680743262,0.3751310774738266,-1.0,-29.505479
1043,35.34936680743261,-0.1644881910076559,35.383258817794484,0.8717857704383376,-1.0,-29.505479
1044,35.383258817794484,-0.33415437664564995,35.41715082815636,1.2232026857285552,-1.0,-29.505479
1045,35.41715082815636,-0.4697148094318354,35.451042838518234,1.2835657948676134,-1.0,-29.505479
1046,35.45104283851823,-0.5112994396587255,35.4849348488801,1.003461272813669,-1.0,-29.505479
1047,35.4849348488801,-0.39754465671218275,35.518826859241976,0.4557231085400059,-1.0,-29.505479
1048,35.51882685924197,-0.12543275058365924,35.552718869603844,-0.20448726611542054,-1.0,-29.505479
1049,35.552718869603844,0.22931295288308448,35.58661087996572,-0.8164897369196108,-1.0,-29.505479
1050,35.58661087996572,0.5482517586255624,35.62050289032759,-1.2741725052681483,-1.0,-29.505479
1051,35.620502890327586,0.7318006575885094,35.65439490068946,-1.5332337233682103,-1.0,-29.505479
1052,35.65439490068946,0.7396706905255656,35.45104283851823,1.283565794867672,6.0,177.032874
1053,35.688286911051335,0.5887235046114853,35.4849348488801,1.003461272813669,6.0,177.032874
1054,35.7221789214132,0.323643446990741,35.51882685924197,0.4557231085401443,6.0,177.032874
1055,35.75607093177508,-0.009008016055958185,35.78996294213695,-0.20644827624066825,-1.0,-29.505479
1056,35.789962942136945,-0.36605629457577793,35.58661087996571,-0.8164897369194826,6.0,177.032874
1057,35.82385495249882,-0.6982560163011178,35.620502890327586,-1.274172505268094,6.0,177.032874
1058,35.857746962860695,-0.9442251549917096,35.65439490068946,-1.5332337233682103,6.0,177.032874
1059,35.89163897322256,-1.0402115056244907,35.68828691105133,-1.575254392221577,6.0,177.032874
1060,35.92553098358444,-0.943092755397325,35.7221789214132,-1.3743715488645505,6.0,177.032874
1061,35.95942299394631,-0.6532075381166855,35.75607093177508,-0.9075698257499984,6.0,177.032874
1062,35.99331500430818,-0.22345580410597343,35.789962942136945,-0.20644827624083673,6.0,177.032874
1063,36.027207014670054,0.25176644881916255,35.82385495249882,0.5971321176685346,6.0,177.032874
1064,36.06109902503193,0.6640865388489477,35.857746962860695,1.285340041297697,6.0,177.032874
1065,36.0949910353938,0.9215846695436304,36.0949910353938,-1.4162173056999436,0.0,0.0
1066,36.12888304575567,0.9675469753641724,36.12888304575567,-1.5187517023745873,0.0,0.0
1067,36.16277505611754,0.7852892715778735,36.16277505611754,-1.3207879462509895,0.0,0.0
1068,36.196667066479414,0.39941935822702535,36.196667066479414,-0.8148763123727861,0.0,0.0
1069,36.23055907684129,-0.11981366517691404,36.23055907684129,-0.05897261382208202,0.0,0.0
1070,36.264451087203156,-0.6573947693157927,36.264451087203156,0.7888789315148885,0.0,0.0
1071,36.29834309756503,-1.0731433251188807,36.29834309756503,1.4972197142805277,0.0,0.0
1072,36.332235107926905,-1.2411301297459458,36.332235107926905,1.8513163233319523,0.0,0.0
1073,36.36612711828877,-1.0943195199614502,36.36612711828877,1.7516346583791624,0.0,0.0
1074,36.40001912865065,-0.6551070607990988,36.40001912865065,1.2529663255122918,0.0,0.0
1075,36.433911139012515,-0.036834947224754465,36.433911139012515,0.5209475224076114,0.0,0.0
1076,36.46780314937439,0.589854928438199,36.46780314937439,-0.2555955860364085,0.0,0.0
1077,36.501695159736265,1.0563597366288102,36.501695159736265,-0.9317965978406936,0.0,0.0
1078,36.53558717009813,1.2542843661385874,36.53558717009813,-1.4163725054111374,0.0,0.0
1079,36.56947918046001,1.1636702529041623,36.56947918046001,-1.6406451113251979,0.0,0.0
1080,36.60337119082188,0.8421554841476112,36.60337119082188,-1.537712026304804,0.0,0.0
1081,36.63726320118375,0.39045205333173594,36.63726320118375,-1.0687402836147768,0.0,0.0
1082,36.671155211545624,-0.08138991765193158,36.671155211545624,-0.2836361342144267,0.0,0.0
1083,36.7050472219075,-0.4737743423401027,36.7050472219075,0.6399305897256836,0.0,0.0
1084,36.73893923226937,-0.7089847091163703,36.73893923226937,1.4315188733926516,0.0,0.0
1085,36.77283124263124,-0.7453816068840614,36.77283124263124,1.835836332102397,0.0,0.0
1086,36.80672325299311,-0.5922601136265148,36.80672325299311,1.7314463410274603,0.0,0.0
1087,36.840615263354984,-0.3101602496189725,36.840615263354984,1.1825695133987773,0.0,0.0
1088,36.87450727371686,0.012964594128449733,36.87450727371686,0.3917864497003063,0.0,0.0
1089,36.908399284078726,0.3000709152349011,36.908399284078726,-0.40882843935180785,0.0,0.0
1090,36.9422912944406,0.5136815827871014,36.9422912944406,-1.0524731188947702,0.0,0.0
1091,36.976183304802476,0.6541808424270515,36.976183304802476,-1.463462846404761,0.0,0.0
1092,37.01007531516434,0.728878021290849,37.01007531516434,-1.618721833337986,0.0,0.0
1093,37.04396732552622,0.7177721730584647,37.04396732552622,-1.498638902592554,0.0,0.0
1094,37.07785933588809,0.5683296633175463,37.07785933588809,-1.0816997371375827,0.0,0.0
1095,37.11175134624996,0.23195849237455868,37.11175134624996,-0.3910319050269516,0.0,0.0
1096,37.145643356611835,-0.2780808904591309,37.145643356611835,0.4526472598810667,0.0,0.0
1097,37.1795353669737,-0.8506061015778201,37.1795353669737,1.2319371811027178,0.0,0.0
1098,37.21342737733558,-1.29899603750683,37.21342737733558,1.7086350375013337,0.0,0.0
1099,37.24731938769745,-1.4421325001883705,37.24731938769745,1.7335648587309742,0.0,0.0
1100,37.28121139805932,-1.2008661374245555,37.28121139805932,1.316994119066261,0.0,0.0
1101,37.315103408421194,-0.6503467145797406,37.315103408421194,0.6126743692473479,0.0,0.0
1102,37.34899541878307,0.008194604248713985,37.34899541878307,-0.16810395260351257,0.0,0.0
1103,37.38288742914494,0.5436396442428136,37.38288742914494,-0.8487081835842913,0.0,0.0
1104,37.41677943950681,0.8033177247635811,37.41677943950681,-1.3273382625053638,0.0,0.0
1105,37.45067144986868,0.7691107890467717,37.45067144986868,-1.55637125168978,0.0,0.0
1106,37.484563460230554,0.531503597473398,37.484563460230554,-1.5023731353574135,0.0,0.0
1107,37.51845547059243,0.2080259235605087,37.51845547059243,-1.1386122902648135,0.0,0.0
1108,37.552347480954296,-0.12997227633663155,37.552347480954296,-0.4851606339802863,0.0,0.0
1109,37.58623949131617,-0.46966831198108444,37.58623949131617,0.34061319716311894,0.0,0.0
1110,37.620131501678046,-0.8081300015218876,37.620131501678046,1.1219833220272022,0.0,0.0
1111,37.65402351203991,-1.092953954318409,37.65402351203991,1.616037170457764,0.0,0.0
1112,37.68791552240179,-1.2096864832236756,37.68791552240179,1.6664086387982362,0.0,0.0
1113,37.72180753276366,-1.034843765242357,37.72180753276366,1.2804998370667542,0.0,0.0
1114,37.75569954312553,-0.5211049289832916,37.75569954312553,0.6165395777971014,0.0,0.0
1115,37.789591553487405,0.24726472345726613,37.789591553487405,-0.10884098452987953,0.0,0.0
1116,37.82348356384927,1.0751338460137871,37.82348356384927,-0.7253379480437566,0.0,0.0
1117,37.85737557421115,1.7464323911443265,37.85737557421115,-1.1562591776409514,0.0,0.0
1118,37.89126758457302,2.122333904394255,37.89126758457302,-1.3893999616857753,0.0,0.0
1119,37.92515959493489,2.1789939330126695,37.92515959493489,-1.4141126699026187,0.0,0.0
1120,37.959051605296764,1.9663412359775156,37.959051605296764,-1.1906400782422344,0.0,0.0
1121,37.99294361565864,1.5350979138078358,37.99294361565864,-0.6853604181432884,0.0,0.0
1122,38.02683562602051,0.9025822305236698,38.02683562602051,0.0564448164817967,0.0,0.0
1123,38.06072763638238,0.08922778995154475,38.06072763638238,0.8691829130278871,0.0,0.0
1124,38.09461964674425,-0.8106536761162065,38.09461964674425,1.5083041387343759,0.0,0.0
1125,38.128511657106124,-1.600300366866884,38.128511657106124,1.7609154067618649,0.0,0.0
1126,38.162403667468,-2.042597864007073,38.162403667468,1.5530464941151803,0.0,0.0
1127,38.196295677829866,-1.9841246045080954,38.196295677829866,0.9792184671213254,0.0,0.0
1128,38.23018768819174,-1.4538630942781992,38.23018768819174,0.23830488468314706,0.0,0.0
1129,38.264079698553616,-0.6627006120878481,38.264079698553616,-0.47133803823540954,0.0,0.0
1130,38.29797170891548,0.0982203693507437,38.29797170891548,-1.0217883452258583,0.0,0.0
1131,38.33186371927736,0.5937649567694164,38.33186371927736,-1.3538289652669033,0.0,0.0
1132,38.36575572963923,0.7339190067772855,38.36575572963923,-1.4313395602070065,0.0,0.0
1133,38.3996477400011,0.573610857349742,38.3996477400011,-1.2141415901440815,0.0,0.0
1134,38.433539750362975,0.24109051109515894,38.433539750362975,-0.6875137794313368,0.0,0.0
1135,38.46743176072484,-0.14666202930875805,38.46743176072484,0.07474598412519971,0.0,0.0
1136,38.50132377108672,-0.5250470727982851,38.50132377108672,0.8802050771324774,0.0,0.0
1137,38.53521578144859,-0.8632216745204461,38.53521578144859,1.4701287578953728,0.0,0.0
1138,38.56910779181046,-1.1170703492767147,38.56910779181046,1.6368412891680133,0.0,0.0
1139,38.602999802172334,-1.204520005529829,38.602999802172334,1.3296074966677733,0.0,0.0
1140,38.63689181253421,-1.032391364112693,38.63689181253421,0.6745447757604738,0.0,0.0
1141,38.67078382289608,-0.5597485106008188,38.67078382289608,-0.10332157333387094,0.0,0.0
1142,38.70467583325795,0.1495490367512758,38.70467583325795,-0.79698579754303,0.0,0.0
1143,38.73856784361982,0.9271992367218127,38.73856784361982,-1.2921200053227564,0.0,0.0
1144,38.772459853981694,1.5578305853594858,38.772459853981694,-1.559091688845652,0.0,0.0
1145,38.80635186434357,1.8592396188330924,38.80635186434357,-1.5910064688124468,0.0,0.0
1146,38.840243874705436,1.7432950011097121,38.840243874705436,-1.3577299197250938,0.0,0.0
1147,38.87413588506731,1.2372713901254855,38.87413588506731,-0.8260898385541928,0.0,0.0
1148,38.908027895429186,0.47140963029778726,38.908027895429186,-0.031997671129806574,0.0,0.0
1149,38.94191990579105,-0.3537078274268823,38.94191990579105,0.8643597835415567,0.0,0.0
1150,38.97581191615293,-1.0152719869987847,38.97581191615293,1.6051337660606213,0.0,0.0
1151,39.0097039265148,-1.3318287529456045,39.0097039265148,1.945068609694205,0.0,0.0
1152,39.04359593687667,-1.22833849437575,39.04359593687667,1.776441208281844,0.0,0.0
1153,39.077487947238545,-0.7697728289281013,39.077487947238545,1.1818297466179617,0.0,0.0
1154,39.11137995760041,-0.13457574669055677,39.11137995760041,0.3793576320415776,0.0,0.0
1155,39.14527196796229,0.4659734589046487,39.14527196796229,-0.3965623523383805,0.0,0.0
1156,39.17916397832416,0.8775490382015606,39.17916397832416,-0.9940267539527093,0.0,0.0
1157,39.21305598868603,1.0487199000127165,39.21305598868603,-1.3621554714181692,0.0,0.0
1158,39.246947999047904,1.0119098706981156,39.246947999047904,-1.497696321162316,0.0,0.0
1159,39.28084000940978,0.8241304249364111,39.28084000940978,-1.3837350334081397,0.0,0.0
1160,39.31473201977165,0.5166369285140766,39.31473201977165,-0.9842871391609271,0.0,0.0
1161,39.34862403013352,0.09031163449813322,39.34862403013352,-0.303822126346842,0.0,0.0
1162,39.38251604049539,-0.44377012283109013,39.38251604049539,0.5433257104606392,0.0,0.0
1163,39.416408050857264,-1.014618816604841,39.416408050857264,1.3274344230729365,0.0,0.0
1164,39.45030006121914,-1.4779845801982656,39.45030006121914,1.7892907171076324,0.0,0.0
1165,39.484192071581006,-1.6619953566669847,39.484192071581006,1.7694365372379013,0.0,0.0
1166,39.51808408194288,-1.453402701636274,39.51808408194288,1.2916367351259972,0.0,0.0
1167,39.551976092304756,-0.8732839604411762,39.551976092304756,0.5414599475640627,0.0,0.0
1168,39.58586810266662,-0.08971302497338116,39.55197609230475,0.54145994756422,1.0,29.505479
1169,39.6197601130285,0.6500185145158922,39.58586810266662,-0.24205867992090277,1.0,29.505479
1170,39.65365212339037,1.1331278763123245,39.6197601130285,-0.8824482953958869,1.0,29.505479
1171,39.68754413375224,1.2728072365606564,39.68754413375224,-1.5332905003645236,0.0,0.0
1172,39.721436144114115,1.1217481343371953,39.92478820628535,1.7073331923389228,-6.0,-177.032874
1173,39.75532815447598,0.8065529461133705,39.95868021664722,1.418705179884831,-6.0,-177.032874
1174,39.78922016483786,0.4377215908584735,39.75532815447598,-1.2956961231761226,1.0,29.505479
1175,39.82311217519973,0.061769130869338496,39.78922016483786,-0.7567117501263633,1.0,29.505479
1176,39.8570041855616,-0.31809413170144857,39.823112175199725,0.02537682628522775,1.0,29.505479
1177,39.890896195923474,-0.6824736530197074,40.09424825809471,-1.1433167988627582,-6.0,-177.032874
1178,39.92478820628535,-0.9549019199969994,40.12814026845658,-1.3766080627706752,-6.0,-177.032874
1179,39.95868021664722,-1.0192661010484225,40.16203227881845,-1.394680916438221,-6.0,-177.032874
1180,39.99257222700909,-0.7891015985969456,39.95868021664722,1.418705179884831,1.0,29.505479
1181,40.02646423737096,-0.2812330867075337,39.992572227009084,0.7672237131363242,1.0,29.505479
1182,40.060356247732834,0.3611705382693869,40.02646423737096,-0.006594086470507174,1.0,29.505479
1183,40.09424825809471,0.9195162966294754,40.060356247732834,-0.6817014253099735,1.0,29.505479
1184,40.128140268456576,1.1998515484412724,40.0942482580947,-1.1433167988626614,1.0,29.505479
1185,40.16203227881845,1.1250849203741178,40.128140268456576,-1.3766080627706714,1.0,29.505479
1186,40.195924289180326,0.7655171639890038,40.39927635135156,1.8574282489887515,-6.0,-177.032874
1187,40.22981629954219,0.28934939219079536,40.19592428918032,-1.1782106358977724,1.0,29.505479
1188,40.26370830990407,-0.13653793062731237,40.22981629954219,-0.687418410735818,1.0,29.505479
1189,40.29760032026594,-0.4320303650100915,40.26370830990407,0.06173377935887536,1.0,29.505479
1190,40.33149233062781,-0.619777440739932,40.297600320265936,0.9290415536959112,1.0,29.505479
1191,40.365384340989685,-0.7654019837081454,40.33149233062781,1.6642225162115816,1.0,29.505479
1192,40.39927635135155,-0.8923493576882485,40.36538434098968,2.0145253391205222,1.0,29.505479
1193,40.43316836171343,-0.9417280382479108,40.39927635135155,1.8574282489888758,1.0,29.505479
1194,40.4670603720753,-0.8123935122980479,40.43316836171343,1.2640385338886937,1.0,29.505479
1195,40.50095238243717,-0.45079217123747944,40.467060372075295,0.4490498333018712,1.0,29.505479
1196,40.534844392799044,0.08316520222913393,40.50095238243717,-0.35242559511507426,1.0,29.505479
1197,40.56873640316092,0.6292367843604421,40.534844392799044,-0.9909667653714527,1.0,29.505479
1198,40.60262841352279,1.0091046659184102,40.56873640316091,-1.423626495490145,1.0,29.505479
1199,40.63652042388466,1.1160882575993396,40.60262841352279,-1.6535576440050848,1.0,29.505479
1200,40.670412434246536,0.9539022645015488,40.63652042388466,-1.6567241068068115,1.0,29.505479
1201,40.704304444608404,0.6111732459632645,40.67041243424653,-1.3696119985086261,1.0,29.505479
1202,40.73819645497028,0.20194678490928927,40.704304444608404,-0.7554235092320176,1.0,29.505479
1203,40.772088465332146,-0.1847379580837569,40.73819645497027,0.10677740680856729,1.0,29.505479
1204,40.80598047569402,-0.5000073894999305,40.772088465332146,0.9946186373902935,1.0,29.505479
1205,40.839872486055896,-0.718027445095086,40.80598047569402,1.619286091782254,1.0,29.505479
1206,40.87376449641776,-0.8124239732192515,40.83987248605589,1.7670521810308357,1.0,29.505479
1207,40.90765650677964,-0.7538074031466996,40.87376449641776,1.4102767805421375,1.0,29.505479
1208,40.94154851714151,-0.5335315423952195,40.90765650677964,0.7110676544867301,1.0,29.505479
1209,40.97544052750338,-0.19067964076742777,40.941548517141506,-0.08085673615748323,1.0,29.505479
1210,41.009332537865255,0.1871208224317156,40.97544052750338,-0.7594122667468539,1.0,29.505479
1211,41.04322454822712,0.4962528448968464,41.00933253786525,-1.2323547898831038,1.0,29.505479
1212,41.077116558589,0.6610514771457306,41.04322454822712,-1.495372351247204,1.0,29.505479
1213,41.11100856895087,0.6578773049123927,41.077116558589,-1.5521861346118995,1.0,29.505479
1214,41.14490057931274,0.5061941356263888,41.111008568950865,-1.3616761291975006,1.0,29.505479
1215,41.178792589674615,0.24211337016231807,41.14490057931274,-0.8649366871955613,1.0,29.505479
1216,41.21268460003649,-0.09736688294665836,41.178792589674615,-0.07298262831479826,1.0,29.505479
1217,41.24657661039836,-0.4659749040727999,41.21268460003648,0.8628960059432542,1.0,29.505479
1218,41.28046862076023,-0.7902795622990917,41.24657661039836,1.6719758384563008,1.0,29.505479
1219,41.314360631122106,-0.9714013028177733,41.28046862076023,2.08202638560307,1.0,29.505479
1220,41.348252641483974,-0.9212370868583798,41.3143606311221,1.9611918884565869,1.0,29.505479
1221,41.38214465184585,-0.6160844570784609,41.348252641483974,1.3858058951311074,1.0,29.505479
1222,41.416036662207716,-0.12836350060162635,41.38214465184584,0.5872559049200194,1.0,29.505479
1223,41.44992867256959,0.3938146335749144,41.653280734740825,-0.04240078464218235,-6.0,-177.032874
1224,41.483820682931466,0.7929498114384621,41.6871727451027,0.8273378502879504,-6.0,-177.032874
1225,41.51771269329333,0.9729831891819923,41.72106475546457,1.528296860027874,-6.0,-177.032874
1226,41.55160470365521,0.9304507491492374,41.75495676582644,1.8017204370902635,-6.0,-177.032874
1227,41.58549671401708,0.7329646211458126,41.78884877618832,1.5541399718655562,-6.0,-177.032874
1228,41.61938872437895,0.4681371600777795,42.02609284872142,-1.5370039102700996,-12.0,-354.065748
1229,41.653280734740825,0.19869845433296518,42.05998485908329,-1.147576253548137,-12.0,-354.065748
1230,41.68717274510269,-0.053232996042600116,42.09387686944516,-0.4602890126423434,-12.0,-354.065748
1231,41.72106475546457,-0.29122630524703885,42.127768879807036,0.41517683694311,-12.0,-354.065748
1232,41.75495676582644,-0.5137141676713577,42.16166089016891,1.239985771492184,-12.0,-354.065748
1233,41.78884877618831,-0.689661157683331,42.19555290053078,1.7425694959995761,-12.0,-354.065748
1234,41.822740786550185,-0.7607488446585389,42.22944491089265,1.7581293081897185,-12.0,-354.065748
1235,41.85663279691206,-0.6734679537878033,42.05998485908329,-1.147576253548137,-6.0,-177.032874
1236,41.89052480727393,-0.41889432607676025,42.5344730041495,-0.7021504448599062,-19.0,-560.604101
1237,41.9244168176358,-0.04656545887967612,42.56836501451137,0.19857212749355765,-19.0,-560.604101
1238,41.958308827997676,0.36055597433546455,42.602257024873246,1.1775741094566405,-19.0,-560.604101
1239,41.992200838359544,0.7274103818644989,42.636149035235114,1.9195361749168967,-19.0,-560.604101
1240,42.02609284872142,1.0081334801131259,42.67004104559699,2.1661580945191115,-19.0,-560.604101
1241,42.059984859083286,1.1733134678225947,42.26333692125452,1.3133193008598905,-6.0,-177.032874
1242,42.09387686944516,1.184188440939115,43.21231321138694,0.6564792795032044,-33.0,-973.6808070000001
1243,42.127768879807036,0.9885928415856589,43.246205221748816,-0.10403222281645488,-33.0,-973.6808070000001
1244,42.1616608901689,0.5541455226316573,43.280097232110684,-0.7142358241595173,-33.0,-973.6808070000001
1245,42.19555290053078,-0.081429632456753,43.07674516993945,1.1613238806621848,-26.0,-767.142454
1246,42.22944491089265,-0.7852350131394225,43.110637180301325,1.734800903658049,-26.0,-767.142454
1247,42.26333692125452,-1.3606759241203727,43.14452919066319,1.8078234783272107,-26.0,-767.142454
1248,42.297228931616395,-1.6277358991946735,43.415665273558176,-1.5753775247294828,-33.0,-973.6808070000001
1249,42.33112094197826,-1.5066937014599464,43.44955728392004,-1.2520275332390427,-33.0,-973.6808070000001
1250,42.36501295234014,-1.0540187878660174,43.48344929428192,-0.5502313057367094,-33.0,-973.6808070000001
1251,42.39890496270201,-0.4303448324203681,43.51734130464379,0.41640510800271885,-33.0,-973.6808070000001
1252,42.43279697306388,0.17479394944562304,43.55123331500566,1.3518865679106111,-33.0,-973.6808070000001
1253,42.466688983425755,0.6120670067250995,43.585125325367535,1.9099886162972404,-33.0,-973.6808070000001
1254,42.50058099378763,0.7992128822956405,43.61901733572941,1.8806447653566614,-33.0,-973.6808070000001
1255,42.5344730041495,0.7082176257240375,43.65290934609128,1.303946098981969,-33.0,-973.6808070000001
