frame_idx,t_rppg,rppg_n,t_gt_pair,ppg_n_pair,lag_samples,lag_frames
0,0.0,-0.19418243363260831,0.0,-0.008673952669230505,0.0,0.0
1,0.03360738362283966,-0.49824204871810734,0.03360738362283966,-0.021662328736526307,0.0,0.0
2,0.06721476724567932,-0.7242382329713646,0.06721476724567932,-0.03395667646125687,0.0,0.0
3,0.10082215086851898,-0.8326328344420121,0.10082215086851898,-0.04848379061874521,0.0,0.0
4,0.13442953449135864,-0.8371950952022466,0.13442953449135864,-0.07266604152553219,0.0,0.0
5,0.1680369181141983,-0.7990944922835809,0.1680369181141983,-0.11789650589294655,0.0,0.0
6,0.20164430173703796,-0.7971070987903548,0.20164430173703796,-0.19793362135838052,0.0,0.0
7,0.23525168535987762,-0.8863173413628671,0.23525168535987762,-0.3255034639092588,0.0,0.0
8,0.2688590689827173,-1.0648223759237312,0.2688590689827173,-0.5048933377861814,0.0,0.0
9,0.30246645260555693,-1.2659686510120833,0.30246645260555693,-0.7202598756484009,0.0,0.0
10,0.3360738362283966,-1.382295145018863,0.3360738362283966,-0.9250834684544952,0.0,0.0
11,0.36968121985123625,-1.312089425058476,0.36968121985123625,-1.0432991328146948,0.0,0.0
12,0.4032886034740759,-1.0078852561903453,0.4032886034740759,-0.990833352399177,0.0,0.0
13,0.4368959870969156,-0.5034866200493582,0.4368959870969156,-0.7149502368409395,0.0,0.0
14,0.47050337071975523,0.09574567888929265,0.47050337071975523,-0.23338313315344814,0.0,0.0
15,0.5041107543425949,0.6567152200600409,0.5041107543425949,0.3523802174233038,0.0,0.0
16,0.5377181379654346,1.0742548910905194,0.5377181379654346,0.8855864452599743,0.0,0.0
17,0.5713255215882742,1.3085750778513885,0.5713255215882742,1.2162089257534618,0.0,0.0
18,0.6049329052111139,1.3861375614317992,0.6049329052111139,1.2654064613380176,0.0,0.0
19,0.6385402888339535,1.3690158867994742,0.6385402888339535,1.0573262760191218,0.0,0.0
20,0.6721476724567932,1.3155249755372445,0.6721476724567932,0.7016716536630124,0.0,0.0
21,0.7057550560796328,1.2554566983879212,0.7057550560796328,0.3387513501076608,0.0,0.0
22,0.7393624397024725,1.189349085398458,0.7393624397024725,0.07797904467620907,0.0,0.0
23,0.7729698233253122,1.1045312974970307,0.7729698233253122,-0.03965480610719263,0.0,0.0
24,0.8065772069481518,0.9920088842416819,0.8065772069481518,-0.041684856354465644,0.0,0.0
25,0.8401845905709915,0.8514661516158558,0.8401845905709915,0.005153837245264487,0.0,0.0
26,0.8737919741938311,0.6831382305805597,0.8737919741938311,0.03249064521939977,0.0,0.0
27,0.9073993578166708,0.4766734114591139,0.9073993578166708,-0.003978089023126212,0.0,0.0
28,0.9410067414395105,0.21012994743678304,0.9410067414395105,-0.11843103130144683,0.0,0.0
29,0.9746141250623501,-0.13555326469623039,0.9746141250623501,-0.3020965571008091,0.0,0.0
30,1.0082215086851898,-0.5540617980916733,1.0082215086851898,-0.5307883107672845,0.0,0.0
31,1.0418288923080294,-0.998508565233434,1.0418288923080294,-0.7649087280504543,0.0,0.0
32,1.075436275930869,-1.3860405234002091,1.075436275930869,-0.9457454643484644,0.0,0.0
33,1.1090436595537088,-1.623696779355175,1.1090436595537088,-1.0003261734262743,0.0,0.0
34,1.1426510431765484,-1.644833233169125,1.1426510431765484,-0.8640915485930635,0.0,0.0
35,1.176258426799388,-1.4387492078996247,1.176258426799388,-0.516522417142712,0.0,0.0
36,1.2098658104222277,-1.0584177094518048,1.2098658104222277,-0.009596382082915113,0.0,0.0
37,1.2434731940450674,-0.6018488064433704,1.2434731940450674,0.5342226738599504,0.0,0.0
38,1.277080577667907,-0.17605404228659233,1.277080577667907,0.9628903597323561,0.0,0.0
39,1.3106879612907467,0.13921608593365856,1.3106879612907467,1.1581479918193962,0.0,0.0
40,1.3442953449135864,0.31251300507109,1.3442953449135864,1.087730136553755,0.0,0.0
41,1.377902728536426,0.3601781722493912,1.377902728536426,0.8168589661152841,0.0,0.0
42,1.4115101121592657,0.3279560683923699,1.4115101121592657,0.47286498970642826,0.0,0.0
43,1.4451174957821054,0.2651071120520069,1.4451174957821054,0.18359977923155796,0.0,0.0
44,1.478724879404945,0.20339606868618662,1.478724879404945,0.02328909100112495,0.0,0.0
45,1.5123322630277847,0.14912186977493608,1.5123322630277847,-0.008065539240607579,0.0,0.0
46,1.5459396466506243,0.08734073558634638,1.5459396466506243,0.03301907702507669,0.0,0.0
47,1.579547030273464,-0.008903100154835116,1.579547030273464,0.07313100554028565,0.0,0.0
48,1.6131544138963037,-0.16907826540691503,1.6131544138963037,0.05842169841870549,0.0,0.0
49,1.6467617975191433,-0.4133531814408546,1.6467617975191433,-0.02994302477310718,0.0,0.0
50,1.680369181141983,-0.7358031142471037,1.680369181141983,-0.18259951627870885,0.0,0.0
51,1.7139765647648226,-1.0883568826369647,1.7139765647648226,-0.3781381700219515,0.0,0.0
52,1.7475839483876623,-1.3790352024470884,1.7475839483876623,-0.5928010263654248,0.0,0.0
53,1.781191332010502,-1.49423407086072,1.781191332010502,-0.7970866375669542,0.0,0.0
54,1.8147987156333416,-1.3398251054449835,1.8147987156333416,-0.9463954925378273,0.0,0.0
55,1.8484060992561813,-0.881512555586248,1.8484060992561813,-0.9807991923199094,0.0,0.0
56,1.882013482879021,-0.16297233484627635,1.882013482879021,-0.8443402109878786,0.0,0.0
57,1.9156208665018606,0.7071055788659834,1.9156208665018606,-0.5188268440978014,0.0,0.0
58,1.9492282501247002,1.5895628129797892,1.9492282501247002,-0.051612347525430986,0.0,0.0
59,1.98283563374754,2.350673696742909,1.98283563374754,0.4456230877447333,0.0,0.0
60,2.0164430173703796,2.8840448458466716,2.0164430173703796,0.834703141815887,0.0,0.0
61,2.0500504009932192,3.118284919624928,2.0500504009932192,1.0090168840747011,0.0,0.0
62,2.083657784616059,3.021065564859688,1.377902728536426,0.8168589661152841,21.0,624.8626859999999
63,2.1172651682388985,2.607127827536231,1.377902728536426,0.8168589661152841,22.0,654.6180519999999
64,2.150872551861738,1.9456583338955111,1.4115101121592657,0.47286498970642826,22.0,654.6180519999999
65,2.184479935484578,1.1546845964579546,1.4451174957821054,0.18359977923155796,22.0,654.6180519999999
66,2.2180873191074175,0.37530515577731305,1.478724879404945,0.02328909100112495,22.0,654.6180519999999
67,2.251694702730257,-0.2671870607379442,1.5123322630277847,-0.008065539240607579,22.0,654.6180519999999
68,2.285302086353097,-0.6974031485298466,1.5459396466506243,0.03301907702507669,22.0,654.6180519999999
69,2.3189094699759365,-0.9039547352837449,1.579547030273464,0.07313100554028565,22.0,654.6180519999999
70,2.352516853598776,-0.9319797482719836,1.6131544138963037,0.05842169841870549,22.0,654.6180519999999
71,2.386124237221616,-0.8637205294637782,1.680369181141983,-0.18259951627870885,21.0,624.8626859999999
72,2.4197316208444555,-0.7957663958100651,1.7139765647648226,-0.3781381700219515,21.0,624.8626859999999
73,2.453339004467295,-0.8138022971677277,1.7475839483876623,-0.5928010263654248,21.0,624.8626859999999
74,2.486946388090135,-0.9641259505431506,1.781191332010502,-0.7970866375669542,21.0,624.8626859999999
75,2.5205537717129745,-1.2294732653678235,1.8147987156333416,-0.9463954925378273,21.0,624.8626859999999
76,2.554161155335814,-1.5252065472108634,1.8484060992561813,-0.9807991923199094,21.0,624.8626859999999
77,2.5877685389586538,-1.7282305908844524,1.8484060992561813,-0.9807991923199094,22.0,654.6180519999999
78,2.6213759225814934,-1.7324432735656616,3.2935235950382866,-1.4608009683516814,-20.0,-595.10732
79,2.654983306204333,-1.5034681529930447,3.3271309786611263,-1.2809001041156505,-20.0,-595.10732
80,2.6885906898271728,-1.1003897754700378,3.360738362283966,-0.7712572664787719,-20.0,-595.10732
81,2.7221980734500124,-0.6499295838300253,2.453339004467295,-0.3315286998828508,8.0,238.042928
82,2.755805457072852,-0.2866833041067122,2.5205537717129745,-0.6965435899179429,7.0,208.28756199999998
83,2.7894128406956917,-0.0923166142830133,2.554161155335814,-0.7923642887612456,7.0,208.28756199999998
84,2.8230202243185314,-0.06624526744735729,2.5877685389586538,-0.7481671776429077,7.0,208.28756199999998
85,2.856627607941371,-0.1420108308121733,2.6213759225814934,-0.5177641131821761,7.0,208.28756199999998
86,2.8902349915642107,-0.23683576540968473,2.654983306204333,-0.1041807070172414,7.0,208.28756199999998
87,2.9238423751870504,-0.30143688783806627,2.6885906898271728,0.42028225819931603,7.0,208.28756199999998
88,2.95744975880989,-0.33800473522502633,2.7221980734500124,0.9244051228110894,7.0,208.28756199999998
89,2.9910571424327297,-0.37785592897643444,2.755805457072852,1.261756191635385,7.0,208.28756199999998
90,3.0246645260555693,-0.4388723490616313,2.7894128406956917,1.3303208016550516,7.0,208.28756199999998
91,3.058271909678409,-0.4952750714796192,2.8230202243185314,1.1185482797899946,7.0,208.28756199999998
92,3.0918792933012487,-0.4826596235269934,2.856627607941371,0.7126205536340359,7.0,208.28756199999998
93,3.1254866769240883,-0.33795718823414184,2.8902349915642107,0.2591377256376337,7.0,208.28756199999998
94,3.159094060546928,-0.04935649752240936,2.9238423751870504,-0.09855640624521585,7.0,208.28756199999998
95,3.1927014441697676,0.3209885535658754,2.95744975880989,-0.2780379104630408,7.0,208.28756199999998
96,3.2263088277926073,0.6657071629527832,2.9910571424327297,-0.28191122001837343,7.0,208.28756199999998
97,3.259916211415447,0.9007602613419049,3.0246645260555693,-0.18129223480440051,7.0,208.28756199999998
98,3.2935235950382866,1.0283039231332762,3.058271909678409,-0.07408444793235465,7.0,208.28756199999998
99,3.3271309786611263,1.1460263504992092,3.0918792933012487,-0.04369949361309832,7.0,208.28756199999998
100,3.360738362283966,1.389176453895851,3.1254866769240883,-0.13661058145588661,7.0,208.28756199999998
101,3.3943457459068056,1.837044289720484,3.159094060546928,-0.3595908065448974,7.0,208.28756199999998
102,3.4279531295296453,2.440474306415221,3.1927014441697676,-0.6840783744430106,7.0,208.28756199999998
103,3.461560513152485,3.0164161828382654,3.2263088277926073,-1.0464033893714315,7.0,208.28756199999998
104,3.4951678967753246,3.3189217764458316,3.259916211415447,-1.346540706432386,7.0,208.28756199999998
105,3.5287752803981642,3.155383531595731,3.2935235950382866,-1.4608009683516814,7.0,208.28756199999998
106,3.562382664021004,2.491086679770892,3.3271309786611263,-1.2809001041156505,7.0,208.28756199999998
107,3.5959900476438436,1.4847558714744775,3.360738362283966,-0.7712572664787719,7.0,208.28756199999998
108,3.629597431266683,0.42702175093345857,3.3943457459068056,-0.013149070821361426,7.0,208.28756199999998
109,3.663204814889523,-0.39436505434282715,3.4279531295296453,0.7999557315642217,7.0,208.28756199999998
110,3.6968121985123625,-0.8311671397777745,3.461560513152485,1.4276288497876268,7.0,208.28756199999998
111,3.730419582135202,-0.9342670832290046,3.4951678967753246,1.6817287794485491,7.0,208.28756199999998
112,3.764026965758042,-0.9025792480951138,3.5287752803981642,1.508399690990454,7.0,208.28756199999998
113,3.7976343493808815,-0.9567973486296953,3.562382664021004,1.0092968688720843,7.0,208.28756199999998
114,3.831241733003721,-1.2175665215491054,3.5959900476438436,0.39272258369659874,7.0,208.28756199999998
115,3.864849116626561,-1.657473981650369,3.629597431266683,-0.11804160029535243,7.0,208.28756199999998
116,3.8984565002494005,-2.143273578746524,3.663204814889523,-0.37454178406177335,7.0,208.28756199999998
117,3.93206388387224,-2.5276231354787884,3.6968121985123625,-0.35337554562006007,7.0,208.28756199999998
118,3.96567126749508,-2.725250418872616,3.730419582135202,-0.15107206286156072,7.0,208.28756199999998
119,3.9992786511179195,-2.7293836315325497,3.764026965758042,0.06834858475535953,7.0,208.28756199999998
120,4.032886034740759,-2.5726543472431946,3.764026965758042,0.06834858475535953,8.0,238.042928
121,4.066493418363599,-2.2771662908541557,3.797634349380882,0.1487867177127406,8.0,238.042928
122,4.1001008019864384,-1.8418671918410021,3.831241733003721,0.010674777696678692,8.0,238.042928
123,4.1337081856092786,-1.2791020364698753,3.8648491166265613,-0.3125334792281394,8.0,238.042928
124,4.167315569232118,-0.6650780101185422,3.8984565002494005,-0.6841399934814189,8.0,238.042928
125,4.200922952854958,-0.15120001816912926,3.9320638838722406,-0.9192155058599168,8.0,238.042928
126,4.234530336477797,0.08969753447883311,3.96567126749508,-0.8665888312885558,8.0,238.042928
127,4.268137720100637,-0.03986288404633167,3.99927865111792,-0.4844699840014243,8.0,238.042928
128,4.301745103723476,-0.47746690702758615,4.032886034740759,0.1277191865848256,8.0,238.042928
129,4.3353524873463165,-0.9854034700744781,4.066493418363599,0.7631467826504238,8.0,238.042928
130,4.368959870969156,-1.2323705777454281,2.554161155335814,-0.7923642887612456,54.0,1606.7897639999999
131,4.402567254591996,-0.9481904109856569,2.587768538958654,-0.7481671776429047,54.0,1606.7897639999999
132,4.436174638214835,-0.07346115421989644,2.6213759225814934,-0.5177641131821761,54.0,1606.7897639999999
133,4.469782021837675,1.1896867686927455,2.6549833062043335,-0.10418070701723448,54.0,1606.7897639999999
134,4.503389405460514,2.468431036909451,4.234530336477797,0.013171060564023762,8.0,238.042928
135,4.5369967890833545,3.4016739867554318,4.268137720100637,-0.35335605925748653,8.0,238.042928
136,4.570604172706194,3.801816345628336,4.301745103723476,-0.4883743664051931,8.0,238.042928
137,4.604211556329034,3.7035682527236062,4.3353524873463165,-0.41949017345608947,8.0,238.042928
138,4.637818939951873,3.2896233142331726,4.368959870969156,-0.2602262723796744,8.0,238.042928
139,4.671426323574713,2.7605638638565453,4.402567254591996,-0.1530626836720638,8.0,238.042928
140,4.705033707197552,2.2366167276641105,4.436174638214835,-0.2048900717583028,8.0,238.042928
141,4.738641090820392,1.7385795188451245,4.469782021837675,-0.4377280263465232,8.0,238.042928
142,4.772248474443232,1.2338753153286421,4.503389405460514,-0.7723727949038027,8.0,238.042928
143,4.805855858066072,0.6977599429416579,4.5369967890833545,-1.0541525759420303,8.0,238.042928
144,4.839463241688911,0.14630512045288027,4.570604172706194,-1.1164095293954002,8.0,238.042928
145,4.873070625311751,-0.3706600664310401,4.604211556329034,-0.8594915162118876,8.0,238.042928
146,4.90667800893459,-0.800344087642392,4.637818939951873,-0.30911355676416735,8.0,238.042928
147,4.94028539255743,-1.1161427140077722,4.671426323574713,0.3796137257659848,8.0,238.042928
148,4.97389277618027,-1.3276908819051707,4.705033707197552,0.9819721827856046,8.0,238.042928
149,5.00750015980311,-1.4688782475676543,4.738641090820392,1.301497838116505,8.0,238.042928
150,5.041107543425949,-1.572880330071083,4.772248474443232,1.256436019658965,8.0,238.042928
151,5.074714927048789,-1.6487363942626154,4.805855858066072,0.9102842906727698,8.0,238.042928
152,5.108322310671628,-1.6732181759139177,4.839463241688911,0.4329107377931079,8.0,238.042928
153,5.141929694294468,-1.605032640474953,4.873070625311751,0.015465988123084492,8.0,238.042928
154,5.1755370779173075,-1.4153207255108924,4.90667800893459,-0.2166239396878958,8.0,238.042928
155,5.209144461540148,-1.114909771347594,4.94028539255743,-0.2513628575720881,8.0,238.042928
156,5.242751845162987,-0.75801736415057,4.97389277618027,-0.17913196414135663,8.0,238.042928
157,5.276359228785827,-0.4187209763123762,4.1337081856092786,1.2811917316687274,34.0,1011.6824439999999
158,5.309966612408666,-0.15658544625532303,4.133708185609278,1.2811917316687251,35.0,1041.43781
159,5.343573996031506,0.006397718519178019,4.167315569232118,1.0151350094320475,35.0,1041.43781
160,5.3771813796543455,0.08622032723420837,4.200922952854958,0.527230361311339,35.0,1041.43781
161,5.410788763277186,0.11844993766484123,4.234530336477798,0.013171060564014075,35.0,1041.43781
162,5.444396146900025,0.13351665160441908,4.268137720100636,-0.3533560592574768,35.0,1041.43781
163,5.478003530522865,0.1389942321242643,4.301745103723476,-0.4883743664051931,35.0,1041.43781
164,5.511610914145704,0.11772938696829603,6.049329052111139,-0.3251144937293063,-16.0,-476.085856
165,5.545218297768544,0.0423628815759097,6.082936435733979,-0.3474647920265878,-16.0,-476.085856
166,5.5788256813913835,-0.10272605385075474,6.082936435733979,-0.3474647920265878,-15.0,-446.33049
167,5.612433065014224,-0.3056160079374746,6.116543819356819,-0.332580831797213,-15.0,-446.33049
168,5.646040448637063,-0.5263532185255282,6.150151202979657,-0.390621094387194,-15.0,-446.33049
169,5.679647832259903,-0.7108748602432631,6.183758586602497,-0.5584010131924781,-15.0,-446.33049
170,5.713255215882742,-0.8096430445736381,6.217365970225337,-0.7692738049315455,-15.0,-446.33049
171,5.746862599505582,-0.7884804865293986,6.2509733538481775,-0.8838250456433214,-15.0,-446.33049
172,5.780469983128421,-0.6249685387979885,6.284580737471016,-0.7681424767530798,-15.0,-446.33049
173,5.8140773667512615,-0.297757670178316,4.604211556329034,-0.8594915162118876,36.0,1071.193176
174,5.847684750374101,0.21169268104083463,4.637818939951873,-0.30911355676416735,36.0,1071.193176
175,5.881292133996941,0.8909368408479202,6.385402888339536,0.7724025415436544,-15.0,-446.33049
176,5.91489951761978,1.6548686531817878,6.4190102719623745,1.1400945352180356,-15.0,-446.33049
177,5.94850690124262,2.331003709146801,5.309966612408667,1.078270429176569,19.0,565.351954
178,5.982114284865459,2.7078518359581762,5.3771813796543455,0.6081754935442795,18.0,535.596588
179,6.0157216684882995,2.636178363857273,5.410788763277186,0.13956828573701896,18.0,535.596588
180,6.049329052111139,2.118878676337684,5.444396146900025,-0.254007867962226,18.0,535.596588
181,6.082936435733979,1.3180924487488752,5.444396146900026,-0.25400786796223157,19.0,565.351954
182,6.116543819356818,0.4656563975387866,5.478003530522864,-0.46329689899989046,19.0,565.351954
183,6.150151202979658,-0.2608141083339743,5.511610914145704,-0.49012339911078284,19.0,565.351954
184,6.183758586602497,-0.8067238072144357,5.545218297768544,-0.42962653819040936,19.0,565.351954
185,6.217365970225337,-1.2110030436268953,5.847684750374102,1.1147289527255793,11.0,327.30902599999996
186,6.250973353848177,-1.5149106787263182,5.88129213399694,1.2638701986453893,11.0,327.30902599999996
187,6.284580737471017,-1.6918973600894296,5.646040448637063,-0.6520473368011783,19.0,565.351954
188,6.318188121093856,-1.6575724833272252,5.679647832259903,-0.7839889052960529,19.0,565.351954
189,6.351795504716696,-1.3483263402451893,5.713255215882743,-0.7410614360310647,19.0,565.351954
190,6.385402888339535,-0.8000730794387703,5.746862599505581,-0.4403921939377126,19.0,565.351954
191,6.419010271962375,-0.16003025628557055,5.780469983128421,0.08104621295755751,19.0,565.351954
192,6.452617655585215,0.3808665784555266,5.8140773667512615,0.6679969808374833,19.0,565.351954
193,6.486225039208055,0.6861629135990597,5.847684750374102,1.1147289527255793,19.0,565.351954
194,6.519832422830894,0.7341419102060389,6.150151202979657,-0.390621094387194,11.0,327.30902599999996
195,6.553439806453734,0.6044185451854908,6.183758586602497,-0.5584010131924781,11.0,327.30902599999996
196,6.587047190076573,0.40948121913802704,6.217365970225337,-0.7692738049315455,11.0,327.30902599999996
197,6.620654573699413,0.22238397074774605,6.2509733538481775,-0.8838250456433214,11.0,327.30902599999996
198,6.654261957322253,0.0451117904398762,6.587047190076573,-0.22088880334119101,2.0,59.510732
199,6.687869340945093,-0.169217964831451,6.620654573699413,-0.30040167146689767,2.0,59.510732
200,6.721476724567932,-0.4596598677578932,7.225587478910526,-0.2780666133484542,-15.0,-446.33049
201,6.755084108190772,-0.8040948026028367,7.259194862533366,-0.25831655947323523,-15.0,-446.33049
202,6.788691491813611,-1.104899634881292,6.721476724567932,-0.29827466257645613,2.0,59.510732
203,6.822298875436451,-1.2270374706380476,6.755084108190772,-0.510793920288378,2.0,59.510732
204,6.8559062590592905,-1.0698365099117364,6.788691491813611,-0.7732471795919856,2.0,59.510732
205,6.889513642682131,-0.6298891862075676,6.822298875436451,-0.9293622391824311,2.0,59.510732
206,6.92312102630497,-0.01454082626973867,6.8559062590592905,-0.8345725400832656,2.0,59.510732
207,6.95672840992781,0.6038872019364445,6.889513642682131,-0.4423063669828748,2.0,59.510732
208,6.990335793550649,1.064381448204502,7.191980095287687,-0.3107136767936036,-6.0,-178.532196
209,7.023943177173489,1.2787924657518321,7.225587478910527,-0.2780666133484533,-6.0,-178.532196
210,7.0575505607963285,1.2498343872710767,7.259194862533366,-0.25831655947323523,-6.0,-178.532196
211,7.091157944419169,1.047653201614398,7.259194862533366,-0.25831655947323523,-5.0,-148.77683
212,7.124765328042008,0.7668417021885188,7.2928022461562065,-0.35287930169749404,-5.0,-148.77683
213,7.158372711664848,0.48616220272516275,7.326409629779047,-0.5687631498202032,-5.0,-148.77683
214,7.191980095287687,0.24400129534577358,7.360017013401885,-0.8051750580103225,-5.0,-148.77683
215,7.225587478910527,0.03435038780839939,7.393624397024725,-0.9028858681909616,-5.0,-148.77683
216,7.259194862533366,-0.17726616907347917,7.427231780647565,-0.7331264048606589,-5.0,-148.77683
217,7.2928022461562065,-0.42407758365663084,7.796913000498801,-0.3447008226595228,-15.0,-446.33049
218,7.326409629779046,-0.7072445719412723,7.830520384121641,-0.33704027928894187,-15.0,-446.33049
219,7.360017013401886,-0.9800911949144221,7.864127767744481,-0.44316774979062995,-15.0,-446.33049
220,7.393624397024725,-1.159114649201455,7.8977351513673195,-0.6579599336992127,-15.0,-446.33049
221,7.427231780647565,-1.1606313949958649,7.93134253499016,-0.873989962457376,-15.0,-446.33049
222,7.460839164270404,-0.9460666453928147,7.964949918613,-0.9350486362770835,-15.0,-446.33049
223,7.4944465478932445,-0.5497382045798004,7.99855730223584,-0.7240722903206781,-15.0,-446.33049
224,7.528053931516084,-0.06975186204359954,8.032164685858678,-0.2386138225679488,-15.0,-446.33049
225,7.561661315138924,0.3750276858122526,8.065772069481518,0.390308611784339,-15.0,-446.33049
226,7.595268698761763,0.696131707651381,8.368238522087076,-0.27563659481160807,-23.0,-684.373418
227,7.628876082384603,0.864535176643796,8.401845905709916,-0.2681617150020005,-23.0,-684.373418
228,7.662483466007442,0.9048508456651835,8.435453289332754,-0.37893836170128165,-23.0,-684.373418
229,7.6960908496302824,0.8654566045361098,8.469060672955594,-0.5983624737433046,-23.0,-684.373418
230,7.729698233253122,0.7867038066321762,8.502668056578434,-0.8183481682715906,-23.0,-684.373418
231,7.763305616875962,0.6842627056631553,8.536275440201274,-0.8840143793553569,-23.0,-684.373418
232,7.796913000498801,0.5515147219202408,8.569882823824113,-0.6777025156077063,-23.0,-684.373418
233,7.830520384121641,0.3742526602164148,8.90595666005251,-0.46757655846396284,-32.0,-952.171712
234,7.86412776774448,0.1480479314534428,8.93956404367535,-0.42198679782852183,-32.0,-952.171712
235,7.89773515136732,-0.10885378883774056,8.97317142729819,-0.36986801949788933,-32.0,-952.171712
236,7.93134253499016,-0.35190102645745025,7.8977351513673195,-0.6579599336992127,1.0,29.755366
237,7.964949918613,-0.5196968005420287,7.93134253499016,-0.873989962457376,1.0,29.755366
238,7.998557302235839,-0.5570582551074712,7.964949918613,-0.9350486362770835,1.0,29.755366
239,8.032164685858678,-0.44417279373308316,7.998557302235838,-0.7240722903206965,1.0,29.755366
240,8.065772069481518,-0.21564364721796833,8.032164685858678,-0.2386138225679488,1.0,29.755366
241,8.099379453104358,0.046783393472345954,8.032164685858678,-0.2386138225679488,2.0,59.510732
242,8.132986836727198,0.24947143358814095,8.099379453104358,0.9508662865398748,1.0,29.755366
243,8.166594220350037,0.3310958414902254,8.132986836727197,1.2487105985508136,1.0,29.755366
244,8.200201603972877,0.28824404362239464,8.166594220350037,1.1979126796076134,1.0,29.755366
245,8.233808987595717,0.16735017731274998,8.200201603972877,0.8558694131737532,1.0,29.755366
246,8.267416371218557,0.030887060491641062,8.233808987595717,0.3862343161988135,1.0,29.755366
247,8.301023754841395,-0.07931819444691239,8.267416371218555,-0.02633877185234118,1.0,29.755366
248,8.334631138464236,-0.1611711590303312,8.301023754841395,-0.2629304989290519,1.0,29.755366
249,8.368238522087076,-0.24733849063043442,8.334631138464236,-0.31598095251215924,1.0,29.755366
250,8.401845905709916,-0.3825622130761974,8.368238522087076,-0.27563659481160807,1.0,29.755366
251,8.435453289332754,-0.5943496911832946,8.401845905709914,-0.26816171500200087,1.0,29.755366
252,8.469060672955594,-0.8682583576931998,8.435453289332754,-0.37893836170128165,1.0,29.755366
253,8.502668056578434,-1.1390316232423423,8.469060672955594,-0.5983624737433046,1.0,29.755366
254,8.536275440201274,-1.306254679515827,8.502668056578434,-0.8183481682715906,1.0,29.755366
255,8.569882823824113,-1.2736780146294173,8.536275440201273,-0.8840143793553534,1.0,29.755366
256,8.603490207446953,-0.9975851441609749,8.569882823824113,-0.6777025156077063,1.0,29.755366
257,8.637097591069793,-0.5202401028719466,8.603490207446953,-0.19286076489749515,1.0,29.755366
258,8.670704974692633,0.03292010223055288,8.637097591069793,0.4441634538562835,1.0,29.755366
259,8.704312358315471,0.4977137747012222,8.670704974692631,1.0214483275766293,1.0,29.755366
260,8.737919741938311,0.740427821718988,8.704312358315471,1.3366500512177137,1.0,29.755366
261,8.771527125561152,0.7200841392337821,8.737919741938311,1.2901246489333644,1.0,29.755366
262,8.805134509183992,0.5143345824518832,8.771527125561152,0.9267526370104504,1.0,29.755366
263,8.83874189280683,0.2957971676347935,8.80513450918399,0.4068550023208004,1.0,29.755366
264,8.87234927642967,0.26428772212390356,8.83874189280683,-0.07457354082068236,1.0,29.755366
265,8.90595666005251,0.5556397689711922,8.87234927642967,-0.3767528608069664,1.0,29.755366
266,8.93956404367535,1.1614468780256209,8.90595666005251,-0.46757655846396284,1.0,29.755366
267,8.973171427298189,1.9023237685076582,8.939564043675349,-0.4219867978285242,1.0,29.755366
268,9.006778810921029,2.485456395933466,8.973171427298189,-0.36986801949788667,1.0,29.755366
269,9.040386194543869,2.636410344307728,9.006778810921029,-0.4205327267699283,1.0,29.755366
270,9.073993578166709,2.2432556892473055,9.040386194543869,-0.5997484412813496,1.0,29.755366
271,9.107600961789547,1.4281080200466894,9.073993578166707,-0.8296334713262199,1.0,29.755366
272,9.141208345412387,0.494516456563689,9.107600961789547,-0.9634225576564601,1.0,29.755366
273,9.174815729035227,-0.22697669270955342,9.141208345412387,-0.8616072348618515,1.0,29.755366
274,9.208423112658068,-0.5483302478436416,9.141208345412387,-0.8616072348618515,2.0,59.510732
275,9.242030496280906,-0.5118012353214473,9.174815729035227,-0.473200184454852,2.0,59.510732
276,9.275637879903746,-0.3499041171364338,9.208423112658068,0.12159743222161139,2.0,59.510732
277,9.309245263526586,-0.3466004531937309,9.242030496280908,0.7349141373997276,2.0,59.510732
278,9.342852647149426,-0.6801410511414814,9.275637879903748,1.1535120808314594,2.0,59.510732
279,9.376460030772265,-1.3303775601487147,9.309245263526584,1.238052874869203,2.0,59.510732
280,9.410067414395105,-2.0939162659210298,9.342852647149424,0.9862208681497157,2.0,59.510732
281,9.443674798017945,-2.6932306870964724,9.376460030772265,0.5269285201883667,2.0,59.510732
282,9.477282181640785,-2.9182432369480433,9.410067414395105,0.05168094756936529,2.0,59.510732
283,9.510889565263623,-2.724736049802871,9.443674798017945,-0.2780488057096825,2.0,59.510732
284,9.544496948886463,-2.2418767149016445,9.477282181640785,-0.39995785993293925,2.0,59.510732
285,9.578104332509303,-1.6944917090849545,9.510889565263625,-0.3656033039672764,2.0,59.510732
286,9.611711716132143,-1.2900650416378794,9.544496948886465,-0.2986520791867082,2.0,59.510732
287,9.645319099754982,-1.1289452315614508,9.578104332509302,-0.3205293394492834,2.0,59.510732
288,9.678926483377822,-1.1707608650863477,9.611711716132142,-0.4799548752949775,2.0,59.510732
289,9.712533867000662,-1.256486128619072,9.645319099754982,-0.7197759423670552,2.0,59.510732
290,9.746141250623502,-1.1684897970511572,9.678926483377822,-0.8982388973756136,2.0,59.510732
291,9.77974863424634,-0.7114797582692829,9.712533867000662,-0.8577480134200012,2.0,59.510732
292,9.81335601786918,0.20252700999478607,9.746141250623502,-0.5104141995474174,2.0,59.510732
293,9.84696340149202,1.492747623711101,9.779748634246342,0.10273878891475091,2.0,59.510732
294,9.88057078511486,2.9067472962934593,9.813356017869182,0.8134613608030787,2.0,59.510732
295,9.914178168737699,4.094668517719468,9.846963401492019,1.3935579981446085,2.0,59.510732
296,9.94778555236054,4.739004249054724,9.880570785114859,1.6558763012209496,2.0,59.510732
297,9.98139293598338,4.680313195089642,9.914178168737699,1.5366292421227907,2.0,59.510732
298,10.01500031960622,3.974203281585255,9.94778555236054,1.1167776540880396,2.0,59.510732
299,10.048607703229058,2.8525798611122477,9.98139293598338,0.5746051649237474,2.0,59.510732
300,10.082215086851898,1.617255929325775,10.01500031960622,0.09798471716655495,2.0,59.510732
301,10.115822470474738,0.5253895310911042,10.04860770322906,-0.19792420733862962,2.0,59.510732
302,10.149429854097578,-0.2822818801249735,10.0822150868519,-0.30985640850497964,2.0,59.510732
303,10.183037237720416,-0.7896751086938807,10.115822470474736,-0.329283456170847,2.0,59.510732
304,10.216644621343256,-1.0596915444530277,10.149429854097576,-0.3821230324197844,2.0,59.510732
305,10.250252004966097,-1.1671641393661576,10.183037237720416,-0.5556640350708698,2.0,59.510732
306,10.283859388588937,-1.1515355495510342,10.216644621343256,-0.8464109003405441,2.0,59.510732
307,10.317466772211775,-1.015862220316214,10.250252004966097,-1.1530063666192927,2.0,59.510732
308,10.351074155834615,-0.7659605085101028,10.283859388588937,-1.319627669755273,2.0,59.510732
309,10.384681539457455,-0.45411895554633563,10.317466772211777,-1.2126934901759452,2.0,59.510732
310,10.418288923080295,-0.18727608050331312,10.351074155834617,-0.795449914775353,2.0,59.510732
311,10.451896306703134,-0.08475528447654865,10.384681539457453,-0.1612427756015654,2.0,59.510732
312,10.485503690325974,-0.20993191625315527,10.418288923080294,0.49637709653981804,2.0,59.510732
313,10.519111073948814,-0.5248378229499265,10.451896306703134,0.9656996217259435,2.0,59.510732
314,10.552718457571654,-0.9038585482677026,10.485503690325974,1.1102478793213266,2.0,59.510732
315,10.586325841194492,-1.1992275925132296,10.519111073948814,0.9256523158481037,2.0,59.510732
316,10.619933224817332,-1.314153973912164,10.552718457571654,0.5326568195457828,2.0,59.510732
317,10.653540608440172,-1.2403147508431005,10.586325841194494,0.1132176626790167,2.0,59.510732
318,10.687147992063013,-1.0473236044671497,10.619933224817334,-0.1760259630285163,2.0,59.510732
319,10.720755375685851,-0.8406767308430811,10.65354060844017,-0.2711560151496492,2.0,59.510732
320,10.754362759308691,-0.7136115608788399,10.68714799206301,-0.21957403344207885,2.0,59.510732
321,10.787970142931531,-0.7125997326225183,10.720755375685851,-0.1433804795587047,2.0,59.510732
322,10.821577526554371,-0.8260349580882628,10.754362759308691,-0.16578492492766445,2.0,59.510732
323,10.85518491017721,-0.9950412676304186,10.787970142931531,-0.33613821211608946,2.0,59.510732
324,10.88879229380005,-1.1368617573216242,10.821577526554371,-0.592037766609756,2.0,59.510732
325,10.92239967742289,-1.169625395364886,10.855184910177211,-0.781816241701404,2.0,59.510732
326,10.95600706104573,-1.032810745460436,10.888792293800051,-0.7413438566237587,2.0,59.510732
327,10.989614444668568,-0.7033763236483909,10.922399677422888,-0.3882292421297677,2.0,59.510732
328,11.023221828291408,-0.20711007146250232,10.956007061045728,0.2180386005488546,2.0,59.510732
329,11.056829211914248,0.37970005370147936,10.989614444668568,0.8874500920102957,2.0,59.510732
330,11.090436595537088,0.9453101522492973,11.023221828291408,1.3814280007718172,2.0,59.510732
331,11.124043979159927,1.376413028391473,11.056829211914248,1.523646453058151,2.0,59.510732
332,11.157651362782767,1.6008632442575457,11.090436595537088,1.280706152579732,2.0,59.510732
333,11.191258746405607,1.6177373787750562,11.124043979159929,0.7710669357196532,2.0,59.510732
334,11.224866130028447,1.495140854400356,11.157651362782769,0.20085659909807901,2.0,59.510732
335,11.258473513651285,1.334070809531425,11.191258746405605,-0.2368536477445468,2.0,59.510732
336,11.292080897274126,1.2168947064136946,11.224866130028445,-0.44731857543185405,2.0,59.510732
337,11.325688280896966,1.1671068666768243,11.258473513651285,-0.4638386330459024,2.0,59.510732
338,11.359295664519806,1.141304828215755,11.292080897274126,-0.4115342076123704,2.0,59.510732
339,11.392903048142644,1.0596510530545948,11.325688280896966,-0.4266929518869565,2.0,59.510732
340,11.426510431765484,0.8609734923164823,11.325688280896966,-0.4266929518869565,3.0,89.266098
341,11.460117815388324,0.5511369821346469,11.359295664519806,-0.5735195997604092,3.0,89.266098
342,11.493725199011164,0.2125450870336022,11.392903048142646,-0.8011273586764326,3.0,89.266098
343,11.527332582634003,-0.03547284449876943,11.426510431765484,-0.9648548711379233,3.0,89.266098
344,11.560939966256843,-0.10405749818778894,11.460117815388324,-0.9042456344712219,3.0,89.266098
345,11.594547349879683,0.010626247685781047,11.493725199011164,-0.538828114052684,3.0,89.266098
346,11.628154733502523,0.22021850911218763,11.527332582634005,0.07101344358578907,3.0,89.266098
347,11.661762117125361,0.39082948941161266,11.560939966256843,0.7359242683028434,3.0,89.266098
348,11.695369500748201,0.41630017774756595,11.594547349879683,1.2207373984180245,3.0,89.266098
349,11.728976884371042,0.2730233806276456,11.628154733502523,1.355564331052213,3.0,89.266098
350,11.762584267993882,0.023175993026763694,11.661762117125363,1.1142444269534495,3.0,89.266098
351,11.79619165161672,-0.2323072440456188,11.695369500748201,0.6190588903708412,3.0,89.266098
352,11.82979903523956,-0.41788261902482604,11.728976884371042,0.07346840433753178,3.0,89.266098
353,11.8634064188624,-0.5245803490824524,11.762584267993882,-0.33736203468447673,3.0,89.266098
354,11.89701380248524,-0.6072555326238582,12.065050720599439,-0.7575854764995897,-5.0,-148.77683
355,11.930621186108079,-0.7450444618425385,12.098658104222277,-0.1411283234545728,-5.0,-148.77683
356,11.964228569730919,-0.9901966182508942,12.132265487845117,0.6075601589801742,-5.0,-148.77683
357,11.997835953353759,-1.33129365146193,12.165872871467958,1.2532107633238156,-5.0,-148.77683
358,12.031443336976599,-1.6866787001000672,12.199480255090798,1.5905727603109032,-5.0,-148.77683
359,12.065050720599437,-1.9315185058908204,12.199480255090796,1.590572760310906,-4.0,-119.021464
360,12.098658104222277,-1.9494792450681666,12.233087638713636,1.5352122675686235,-4.0,-119.021464
361,12.132265487845117,-1.6874218348135808,12.266695022336476,1.1541761971342999,-4.0,-119.021464
362,12.165872871467958,-1.1852631152309976,12.300302405959316,0.6242935461817778,-4.0,-119.021464
363,12.199480255090796,-0.5624358551393848,12.333909789582155,0.14450391475606444,-4.0,-119.021464
364,12.233087638713636,0.033701495152883,12.367517173204995,-0.15158183532300812,-4.0,-119.021464
365,12.266695022336476,0.4886986209042076,12.401124556827835,-0.2430966734444593,-4.0,-119.021464
366,12.300302405959316,0.7575030745427686,12.434731940450675,-0.21340641864870039,-4.0,-119.021464
367,12.333909789582155,0.86148445369114,12.468339324073513,-0.19597940581309092,-4.0,-119.021464
368,12.367517173204995,0.8574483924892543,12.501946707696353,-0.3018226947078833,-4.0,-119.021464
369,12.401124556827835,0.8034575144912326,12.535554091319193,-0.5595930387570713,-4.0,-119.021464
370,12.434731940450675,0.7388368781862676,12.569161474942034,-0.8930171446966513,-4.0,-119.021464
371,12.468339324073513,0.6788890276953985,12.602768858564872,-1.1470033819651257,-4.0,-119.021464
372,12.501946707696353,0.6160005935289325,12.636376242187712,-1.1557557870467334,-4.0,-119.021464
373,12.535554091319193,0.5240416269438382,12.669983625810552,-0.8264168390231675,-4.0,-119.021464
374,12.569161474942034,0.37149802095953066,12.434731940450675,-0.21340641864870039,4.0,119.021464
375,12.602768858564872,0.146228093684686,12.468339324073513,-0.19597940581309092,4.0,119.021464
376,12.636376242187712,-0.11901702243544202,12.501946707696353,-0.3018226947078833,4.0,119.021464
377,12.669983625810552,-0.34104385272554616,12.535554091319193,-0.5595930387570713,4.0,119.021464
378,12.703591009433392,-0.41383250911772296,12.83802054392475,1.4285066577557213,-4.0,-119.021464
379,12.73719839305623,-0.25989917435116583,12.871627927547589,1.0160543575852228,-4.0,-119.021464
380,12.77080577667907,0.12457166096332442,12.90523531117043,0.4548130801642683,-4.0,-119.021464
381,12.80441316030191,0.6607507025967231,12.93884269479327,-0.05154391484335252,-4.0,-119.021464
382,12.83802054392475,1.2202873562054632,12.97245007841611,-0.3633097722588322,-4.0,-119.021464
383,12.871627927547589,1.6772028153746383,13.006057462038948,-0.45267877345032825,-4.0,-119.021464
384,12.90523531117043,1.9460279080721228,12.77080577667907,1.1928562318489964,4.0,119.021464
385,12.93884269479327,1.9909107243599073,12.80441316030191,1.5111755760049035,4.0,119.021464
386,12.97245007841611,1.8150716003913965,12.83802054392475,1.4285066577557213,4.0,119.021464
387,13.006057462038948,1.4488226912234485,12.871627927547589,1.0160543575852228,4.0,119.021464
388,13.039664845661788,0.9435997465001287,13.174094380153146,-0.8951881624836483,-4.0,-119.021464
389,13.073272229284628,0.36513357171924493,13.207701763775987,-1.167537926514695,-4.0,-119.021464
390,13.106879612907468,-0.22254043629737297,13.241309147398827,-1.2337935342340056,-4.0,-119.021464
391,13.140486996530306,-0.7785449335782096,13.274916531021665,-0.9758849423422348,-4.0,-119.021464
392,13.174094380153146,-1.296132796369123,13.308523914644505,-0.3937614270476156,-4.0,-119.021464
393,13.207701763775987,-1.7883413034820295,13.342131298267345,0.37567692095152316,-4.0,-119.021464
394,13.241309147398827,-2.251180622635187,13.106879612907468,-0.3803946052259729,4.0,119.021464
395,13.274916531021665,-2.629889479556364,13.140486996530306,-0.5858772452473509,4.0,119.021464
396,13.308523914644505,-2.8210346839332683,13.174094380153146,-0.8951881624836483,4.0,119.021464
397,13.342131298267345,-2.722491857551575,13.207701763775987,-1.167537926514695,4.0,119.021464
398,13.375738681890185,-2.305276817700239,13.241309147398827,-1.2337935342340056,4.0,119.021464
399,13.409346065513024,-1.6557334853106203,13.308523914644505,-0.3937614270476156,3.0,89.266098
400,13.442953449135864,-0.948454282318436,13.308523914644505,-0.3937614270476156,4.0,119.021464
401,13.476560832758704,-0.35650684784827874,13.342131298267345,0.37567692095152316,4.0,119.021464
402,13.510168216381544,0.04541113716443419,13.375738681890185,1.1043589162211378,4.0,119.021464
403,13.543775600004382,0.31604337718128284,13.409346065513024,1.5665782014230207,4.0,119.021464
404,13.577382983627222,0.5913370467076093,13.442953449135864,1.634873162317345,4.0,119.021464
405,13.610990367250063,0.9747695476846527,13.476560832758704,1.3298869667585658,4.0,119.021464
406,13.644597750872903,1.454076071125019,13.510168216381544,0.8013820543058398,4.0,119.021464
407,13.678205134495741,1.9028889315230402,13.543775600004382,0.25440843152364295,4.0,119.021464
408,13.711812518118581,2.158621145326975,13.577382983627222,-0.1401500389294584,4.0,119.021464
409,13.745419901741421,2.1144756771006694,13.610990367250063,-0.30959535049556824,4.0,119.021464
410,13.779027285364261,1.7662223556145429,13.644597750872903,-0.29445112224445336,4.0,119.021464
411,13.8126346689871,1.1994708399528946,13.678205134495741,-0.21490196406006873,4.0,119.021464
412,13.84624205260994,0.5441076144275157,13.711812518118581,-0.2075214713191769,4.0,119.021464
413,13.87984943623278,-0.0694565740124825,13.745419901741421,-0.3589937733618579,4.0,119.021464
414,13.91345681985562,-0.5356596338082857,14.047886354346979,1.6175688773581807,-4.0,-119.021464
415,13.947064203478458,-0.7847626268932838,14.081493737969817,1.482536284600074,-4.0,-119.021464
416,13.980671587101298,-0.7902018869174331,14.115101121592657,1.0275839643273998,-4.0,-119.021464
417,14.014278970724138,-0.5760078045252678,14.148708505215497,0.44545511661599524,-4.0,-119.021464
418,14.047886354346979,-0.21767202949643977,14.148708505215497,0.44545511661599524,-3.0,-89.266098
419,14.081493737969817,0.1727832809820957,14.182315888838335,-0.05909139534288499,-3.0,-89.266098
420,14.115101121592657,0.4788114507936415,14.215923272461175,-0.3540366994691356,-3.0,-89.266098
421,14.148708505215497,0.6176183485494134,14.014278970724138,1.3417732529346063,4.0,119.021464
422,14.182315888838337,0.5675393116229339,14.047886354346979,1.6175688773581807,4.0,119.021464
423,14.215923272461175,0.37152017097759654,14.081493737969817,1.482536284600074,4.0,119.021464
424,14.249530656084016,0.11523930219061171,14.383960190575374,-0.5931568499793104,-4.0,-119.021464
425,14.283138039706856,-0.11011052910441106,14.417567574198214,-0.9278103742332868,-4.0,-119.021464
426,14.316745423329696,-0.24465374127090186,14.451174957821054,-1.2119703881269535,-4.0,-119.021464
427,14.350352806952534,-0.2817277117484573,14.484782341443893,-1.2693001884706743,-4.0,-119.021464
428,14.383960190575374,-0.26649970292043096,14.249530656084016,-0.42347608917082097,4.0,119.021464
429,14.417567574198214,-0.272040599057955,14.283138039706856,-0.3568960269314297,4.0,119.021464
430,14.451174957821054,-0.3627374003900965,14.316745423329696,-0.2954303119637751,4.0,119.021464
431,14.484782341443893,-0.5599538957855991,14.350352806952534,-0.36047904893349153,4.0,119.021464
432,14.518389725066733,-0.8234647201428822,14.383960190575374,-0.5931568499793104,4.0,119.021464
433,14.551997108689573,-1.0569864132191065,14.417567574198214,-0.9278103742332868,4.0,119.021464
434,14.585604492312413,-1.14010408275276,14.451174957821054,-1.2119703881269535,4.0,119.021464
435,14.619211875935251,-0.9800062597217805,14.484782341443893,-1.2693001884706743,4.0,119.021464
436,14.652819259558092,-0.5632742767230686,14.518389725066733,-0.9832222820065489,4.0,119.021464
437,14.686426643180932,0.02099661730601786,14.551997108689573,-0.3641584823476783,4.0,119.021464
438,14.720034026803772,0.6072440387817322,14.585604492312413,0.43606489523778624,4.0,119.021464
439,14.75364141042661,1.0226268317105036,14.619211875935251,1.176962733207236,4.0,119.021464
440,14.78724879404945,1.1649727494064535,14.652819259558092,1.6283449675259758,4.0,119.021464
441,14.82085617767229,1.0463766661755591,14.921678328540809,-0.3155350703036769,-3.0,-89.266098
442,14.85446356129513,0.7783944957911189,14.955285712163649,-0.3374582485996837,-3.0,-89.266098
443,14.888070944917969,0.5088137306340458,14.988893095786487,-0.5228084148803277,-3.0,-89.266098
444,14.921678328540809,0.3457364247665699,15.022500479409327,-0.8456983314604891,-3.0,-89.266098
445,14.955285712163649,0.30764688078290375,15.056107863032167,-1.1750414927516384,-3.0,-89.266098
446,14.988893095786489,0.3211716689547045,15.089715246655008,-1.324908210683486,-3.0,-89.266098
447,15.022500479409327,0.26441507669076564,15.123322630277846,-1.1401528722036307,-3.0,-89.266098
448,15.056107863032167,0.03455102389366669,15.156930013900686,-0.5814461385633499,-3.0,-89.266098
449,15.089715246655008,-0.3910460557722325,15.190537397523526,0.2341834798510767,-3.0,-89.266098
450,15.123322630277848,-0.9289533292578731,15.224144781146366,1.0659434615442223,-3.0,-89.266098
451,15.156930013900686,-1.4139616338363594,15.257752164769204,1.6470604337963493,-3.0,-89.266098
452,15.190537397523526,-1.665370318424555,15.291359548392045,1.801352136007771,-3.0,-89.266098
453,15.224144781146366,-1.5661415808883574,15.324966932014885,1.5181523521293008,-3.0,-89.266098
454,15.257752164769206,-1.118236710490703,15.358574315637725,0.9475073247912561,-3.0,-89.266098
455,15.291359548392045,-0.44714224637271943,15.392181699260563,0.32204064213550454,-3.0,-89.266098
456,15.324966932014885,0.24881085511032128,15.425789082883403,-0.15079650528675562,-3.0,-89.266098
457,15.358574315637725,0.781585448611414,15.459396466506243,-0.37296605490170703,-3.0,-89.266098
458,15.392181699260565,1.048050744609177,15.493003850129083,-0.3816814622273473,-3.0,-89.266098
459,15.425789082883403,1.0594002981330943,15.526611233751922,-0.31253861414800554,-3.0,-89.266098
460,15.459396466506243,0.9152773638934438,15.560218617374762,-0.3220288347990124,-3.0,-89.266098
461,15.493003850129083,0.7429748487600965,15.593826000997602,-0.5047627264910938,-3.0,-89.266098
462,15.526611233751924,0.6357345557780899,15.627433384620442,-0.8400908673007209,-3.0,-89.266098
463,15.560218617374762,0.6163393055613595,15.66104076824328,-1.191417673860912,-3.0,-89.266098
464,15.593826000997602,0.635168685505237,15.69464815186612,-1.3623311116829633,-3.0,-89.266098
465,15.627433384620442,0.5991371321696194,15.72825553548896,-1.1898911543495931,-3.0,-89.266098
466,15.661040768243282,0.421045232415961,15.7618629191118,-0.6344344299915246,-3.0,-89.266098
467,15.69464815186612,0.07211294375777129,15.795470302734639,0.18056140435499957,-3.0,-89.266098
468,15.72825553548896,-0.38640856853554784,15.82907768635748,1.0060163792322077,-3.0,-89.266098
469,15.7618629191118,-0.8147614668905341,15.627433384620442,-0.8400908673007209,4.0,119.021464
470,15.79547030273464,-1.0527512911872297,15.661040768243282,-1.1914176738609306,4.0,119.021464
471,15.82907768635748,-0.9983496251908829,15.69464815186612,-1.3623311116829633,4.0,119.021464
472,15.86268506998032,-0.6624811535738022,15.72825553548896,-1.1898911543495931,4.0,119.021464
473,15.89629245360316,-0.1665481643230079,15.7618629191118,-0.6344344299915246,4.0,119.021464
474,15.929899837226,0.3159532340018101,15.79547030273464,0.18056140435504267,4.0,119.021464
475,15.963507220848838,0.638984339560737,15.82907768635748,1.0060163792322077,4.0,119.021464
476,15.997114604471678,0.7407595254728396,15.86268506998032,1.570494565306472,4.0,119.021464
477,16.030721988094516,0.6520848053980652,15.896292453603158,1.6994726925471195,4.0,119.021464
478,16.064329371717356,0.46096351918290385,15.929899837225998,1.3892861398088487,4.0,119.021464
479,16.097936755340196,0.26052729844726735,15.963507220848838,0.7986130158512132,4.0,119.021464
480,16.131544138963037,0.10950673124145725,15.997114604471678,0.16555455166845615,4.0,119.021464
481,16.165151522585877,0.01911108295338041,16.03072198809452,-0.30380391795672884,4.0,119.021464
482,16.198758906208717,-0.03805769775904586,16.064329371717356,-0.5198043880094734,4.0,119.021464
483,16.232366289831557,-0.10885613564662128,16.0979367553402,-0.5302994729791367,4.0,119.021464
484,16.265973673454397,-0.23808063500266752,16.131544138963037,-0.47531438896177813,4.0,119.021464
485,16.299581057077233,-0.44720933938825425,16.165151522585873,-0.50168555992827,4.0,119.021464
486,16.333188440700074,-0.7167483120584106,16.198758906208717,-0.6789127108887533,4.0,119.021464
487,16.366795824322914,-0.9801417959716582,16.232366289831553,-0.9550614598016385,4.0,119.021464
488,16.400403207945754,-1.1387537353524129,16.265973673454397,-1.1744916613319951,4.0,119.021464
489,16.434010591568594,-1.1001383775872,16.299581057077233,-1.1525835915502134,4.0,119.021464
490,16.467617975191434,-0.8262288752275566,16.333188440700077,-0.7748173459221213,4.0,119.021464
491,16.501225358814274,-0.36466586647677,16.366795824322914,-0.0710546312556183,4.0,119.021464
492,16.534832742437114,0.16033201320691903,16.400403207945757,0.7771084322729322,4.0,119.021464
493,16.56844012605995,0.5986774791096688,16.434010591568594,1.505811428048081,4.0,119.021464
494,16.60204750968279,0.8412017882368326,16.46761797519143,1.8831328447844724,4.0,119.021464
495,16.63565489330563,0.8658740150362078,16.501225358814274,1.809870573073884,4.0,119.021464
496,16.66926227692847,0.7384973303041024,16.53483274243711,1.3561065259244094,4.0,119.021464
497,16.70286966055131,0.5692480456726259,16.568440126059954,0.718768303529016,4.0,119.021464
498,16.73647704417415,0.451051884393458,17.206980414893906,0.08085744704916432,-14.0,-416.57512399999996
499,16.77008442779699,0.4141830668045635,17.240587798516746,-0.2764933528998616,-14.0,-416.57512399999996
500,16.80369181141983,0.41947013788020204,16.904513962288352,-1.5372392538325377,-3.0,-89.266098
501,16.837299195042668,0.3891629657737066,16.702869660551308,-0.38828444251832456,4.0,119.021464
502,16.870906578665508,0.25525471007574885,16.73647704417415,-0.3732687189285043,4.0,119.021464
503,16.90451396228835,5.632741134757242e-06,16.770084427796988,-0.49307545137605374,4.0,119.021464
504,16.93812134591119,-0.32871805885532035,16.80369181141983,-0.7924991133239168,4.0,119.021464
505,16.97172872953403,-0.6321517028569735,16.837299195042668,-1.1906074098387838,4.0,119.021464
506,17.00533611315687,-0.7991872073084024,16.87090657866551,-1.5061828634809566,4.0,119.021464
507,17.03894349677971,-0.7540011704540033,17.13976564764823,1.271183641182567,-3.0,-89.266098
508,17.07255088040255,-0.49262491344002696,17.17337303127107,0.6518217857583236,-3.0,-89.266098
509,17.106158264025385,-0.09015391738120476,17.206980414893906,0.08085744704916432,-3.0,-89.266098
510,17.139765647648225,0.3274765156790336,17.240587798516746,-0.2764933528998616,-3.0,-89.266098
511,17.173373031271066,0.6349682101603039,17.03894349677971,1.2957913621685253,4.0,119.021464
512,17.206980414893906,0.7573536503280077,17.072550880402545,1.7332896948181638,4.0,119.021464
513,17.240587798516746,0.6942880160170147,17.10615826402539,1.700629366163357,4.0,119.021464
514,17.274195182139586,0.5097280538035839,17.139765647648225,1.2711836411826325,4.0,119.021464
515,17.307802565762426,0.2958528480865934,17.17337303127107,0.6518217857583236,4.0,119.021464
516,17.341409949385266,0.13096918252739137,17.442232100253786,-1.0345810263645336,-3.0,-89.266098
517,17.375017333008103,0.0493454939383029,17.475839483876623,-1.2670961228660693,-3.0,-89.266098
518,17.408624716630943,0.031281864872974456,17.509446867499463,-1.1994008942793302,-3.0,-89.266098
519,17.442232100253783,0.014354197796381253,17.543054251122303,-0.7431859103777335,-3.0,-89.266098
520,17.475839483876623,-0.07608765931929712,17.341409949385266,-0.31354914004497575,4.0,119.021464
521,17.509446867499463,-0.2848035101932633,17.375017333008103,-0.4170076371971393,4.0,119.021464
522,17.543054251122303,-0.5913339453273814,17.408624716630946,-0.6892920297483724,4.0,119.021464
523,17.576661634745143,-0.9046199430831923,17.442232100253783,-1.034581026364509,4.0,119.021464
524,17.610269018367983,-1.0982608018903643,17.677483785613664,1.8611187849900648,-2.0,-59.510732
525,17.64387640199082,-1.0719557747752184,17.7110911692365,1.683252270673811,-2.0,-59.510732
526,17.67748378561366,-0.8050339119319232,17.74469855285934,1.1545690843364589,-2.0,-59.510732
527,17.7110911692365,-0.3699810992589771,17.77830593648218,0.49468803706502157,-2.0,-59.510732
528,17.74469855285934,0.1018297005423669,17.81191332010502,-0.07055248711262772,-2.0,-59.510732
529,17.77830593648218,0.48030668953132255,17.643876401990823,1.5780814752428312,4.0,119.021464
530,17.81191332010502,0.6877911488893367,17.643876401990823,1.5780814752428312,5.0,148.77683
531,17.84552070372786,0.7179680891769861,17.677483785613664,1.8611187849900648,5.0,148.77683
532,17.8791280873507,0.6223946511387954,17.711091169236504,1.683252270673755,5.0,148.77683
533,17.912735470973537,0.47932903467007215,17.74469855285934,1.1545690843364589,5.0,148.77683
534,17.946342854596377,0.3599205376415828,17.77830593648218,0.49468803706502157,5.0,148.77683
535,17.979950238219217,0.3011481812154147,17.81191332010502,-0.07055248711262772,5.0,148.77683
536,18.013557621842057,0.29195476638766676,17.84552070372786,-0.4019635069672849,5.0,148.77683
537,18.047165005464898,0.27875470583920925,17.8791280873507,-0.49012632864839945,5.0,148.77683
538,18.080772389087738,0.19277330258378528,17.91273547097354,-0.43782904602006334,5.0,148.77683
539,18.114379772710578,-0.008951197681364605,17.94634285459638,-0.3975471796359893,5.0,148.77683
540,18.147987156333418,-0.30903591928993984,17.97995023821922,-0.49382205555834746,5.0,148.77683
541,18.181594539956254,-0.6239093885872504,18.013557621842057,-0.7611464117630239,5.0,148.77683
542,18.215201923579095,-0.8353135331451204,18.047165005464898,-1.1202507127854089,5.0,148.77683
543,18.248809307201935,-0.8454444177505449,18.316024074447615,1.8993874994569435,-2.0,-59.510732
544,18.282416690824775,-0.6261722910134586,18.349631458070455,1.5179940912656964,-2.0,-59.510732
545,18.316024074447615,-0.23533234498898808,18.383238841693295,0.8968167783391127,-2.0,-59.510732
546,18.349631458070455,0.20765870946329482,18.416846225316135,0.26655029516962003,-2.0,-59.510732
547,18.383238841693295,0.5725637329923341,18.215201923579098,0.5507383536257258,5.0,148.77683
548,18.416846225316135,0.7699672015446888,18.248809307201938,1.3710112233301772,5.0,148.77683
549,18.45045360893897,0.7812608174322713,18.282416690824775,1.86336077000294,5.0,148.77683
550,18.484060992561812,0.6563855737824682,18.316024074447615,1.8993874994569435,5.0,148.77683
551,18.517668376184652,0.4831556512163711,18.349631458070455,1.5179940912656964,5.0,148.77683
552,18.551275759807492,0.34375295333750056,18.383238841693295,0.8968167783391127,5.0,148.77683
553,18.584883143430332,0.2785377706840444,18.416846225316135,0.26655029516962003,5.0,148.77683
554,18.618490527053172,0.2720902508389949,18.450453608938975,-0.187052265333326,5.0,148.77683
555,18.652097910676012,0.2645985939304305,18.484060992561815,-0.3895738011473253,5.0,148.77683
556,18.685705294298852,0.18135427708738566,18.517668376184655,-0.39008386985414245,5.0,148.77683
557,18.71931267792169,-0.030907368931849026,18.551275759807492,-0.32247965443044413,5.0,148.77683
558,18.75292006154453,-0.372493567128212,18.61849052705317,-0.529644474450657,4.0,119.021464
559,18.78652744516737,-0.7767952428913393,18.652097910676012,-0.891224991830637,4.0,119.021464
560,18.82013482879021,-1.1255361219594502,18.68570529429885,-1.2996022722602012,4.0,119.021464
561,18.85374221241305,-1.2942125280394985,18.719312677921693,-1.5595862934307043,4.0,119.021464
562,18.88734959603589,-1.2092773353979018,18.75292006154453,-1.4854776815942534,4.0,119.021464
563,18.92095697965873,-0.8853778462569784,18.786527445167373,-0.994996521597704,4.0,119.021464
564,18.95456436328157,-0.419113311320324,18.786527445167373,-0.994996521597704,5.0,148.77683
565,18.988171746904406,0.05737859662592403,18.82013482879021,-0.16873727343832498,5.0,148.77683
566,19.021779130527246,0.43451543317023505,18.85374221241305,0.7633561952157837,5.0,148.77683
567,19.055386514150086,0.6623716081277561,18.88734959603589,1.5117372572396255,5.0,148.77683
568,19.088993897772927,0.7522457082809078,18.92095697965873,1.8517274115465199,5.0,148.77683
569,19.122601281395767,0.7518926582106618,18.95456436328157,1.718242009643832,5.0,148.77683
570,19.156208665018607,0.7147465313970411,18.98817174690441,1.222907494552671,5.0,148.77683
571,19.189816048641447,0.6780390328076453,19.02177913052725,0.5900986664742446,5.0,148.77683
572,19.223423432264287,0.6529003375581455,19.05538651415009,0.05039620543078866,5.0,148.77683
573,19.257030815887124,0.62297749559095,19.088993897772927,-0.25446578102462836,5.0,148.77683
574,19.290638199509964,0.5497915855365959,19.122601281395767,-0.31523796910673596,5.0,148.77683
575,19.324245583132804,0.3869808192914484,19.156208665018607,-0.2372405277488072,5.0,148.77683
576,19.357852966755644,0.10418887839180119,19.189816048641447,-0.17767443688669854,5.0,148.77683
577,19.391460350378484,-0.28655538694868005,19.223423432264287,-0.26805837473966987,5.0,148.77683
578,19.425067734001324,-0.717018034339358,19.257030815887127,-0.5512331258838294,5.0,148.77683
579,19.458675117624164,-1.0756577532663048,19.525889884869844,1.8202556193440989,-2.0,-59.510732
580,19.492282501247004,-1.2483066316719915,19.559497268492684,1.9254792122844677,-2.0,-59.510732
581,19.52588988486984,-1.1690158680172387,19.59310465211552,1.5917389137792446,-2.0,-59.510732
582,19.55949726849268,-0.8530467926013718,19.62671203573836,0.9853635998610772,-2.0,-59.510732
583,19.59310465211552,-0.3920484003488307,19.6603194193612,0.338966128005959,-2.0,-59.510732
584,19.62671203573836,0.08598665901024341,19.69392680298404,-0.1502400248042071,-2.0,-59.510732
585,19.6603194193612,0.46863436941614056,19.72753418660688,-0.3908385714100394,-2.0,-59.510732
586,19.69392680298404,0.6954031681602213,19.76114157022972,-0.41253298244272474,-2.0,-59.510732
587,19.72753418660688,0.7647596647864596,19.79474895385256,-0.33230871396039047,-2.0,-59.510732
588,19.76114157022972,0.7169069457861027,19.8283563374754,-0.29478061293595453,-2.0,-59.510732
589,19.794748953852558,0.6077427838909835,19.86196372109824,-0.4111664683511003,-2.0,-59.510732
590,19.828356337475398,0.4871997494349715,19.89557110472108,-0.7136356973548956,-2.0,-59.510732
591,19.86196372109824,0.3863299173817533,19.69392680298404,-0.1502400248042071,5.0,148.77683
592,19.89557110472108,0.31082214534657165,19.72753418660688,-0.3908385714100394,5.0,148.77683
593,19.92917848834392,0.23929581494768204,19.76114157022972,-0.41253298244272474,5.0,148.77683
594,19.96278587196676,0.13014959971088685,19.79474895385256,-0.33230871396039047,5.0,148.77683
595,19.9963932555896,-0.05821050511578456,19.8283563374754,-0.29478061293595453,5.0,148.77683
596,20.03000063921244,-0.33775343378638917,19.861963721098242,-0.4111664683511323,5.0,148.77683
597,20.063608022835275,-0.6676127565981104,20.130822790080956,1.0410969667844974,-2.0,-59.510732
598,20.097215406458115,-0.9552286515592414,20.198037557326636,1.9688624386038645,-3.0,-89.266098
599,20.130822790080956,-1.0878144804529188,19.996393255589595,-1.6810118751987484,4.0,119.021464
600,20.164430173703796,-0.9818790132085873,20.03000063921244,-1.461525255382203,4.0,119.021464
601,20.198037557326636,-0.6264726182540558,20.063608022835275,-0.8292857450859835,4.0,119.021464
602,20.231644940949476,-0.09764145933721119,20.09721540645812,0.09016050645434075,4.0,119.021464
603,20.265252324572316,0.4640962518541172,20.130822790080956,1.0410969667844974,4.0,119.021464
604,20.298859708195156,0.9035687807588447,20.1644301737038,1.7343413000741474,4.0,119.021464
605,20.332467091817993,1.1069713357716322,20.198037557326636,1.9688624386038645,4.0,119.021464
606,20.366074475440833,1.0419699377627887,20.231644940949472,1.7163703971845121,4.0,119.021464
607,20.399681859063673,0.7665330807466719,20.265252324572316,1.1250772645690357,4.0,119.021464
608,20.433289242686513,0.4022944866436207,20.298859708195153,0.44333706091924074,4.0,119.021464
609,20.466896626309353,0.0819584580107048,20.332467091817996,-0.09440572049765349,4.0,119.021464
610,20.500504009932193,-0.10745627218629432,20.366074475440833,-0.36248110810716067,4.0,119.021464
611,20.534111393555033,-0.1598339441152958,20.399681859063676,-0.3794239078741132,4.0,119.021464
612,20.567718777177873,-0.14638253390610081,20.433289242686513,-0.27654914577918965,4.0,119.021464
613,20.60132616080071,-0.1734612203242432,20.46689662630935,-0.22162416665720155,4.0,119.021464
614,20.63493354442355,-0.32089662707691585,20.500504009932193,-0.33376113921133815,4.0,119.021464
615,20.66854092804639,-0.5919309349289539,20.53411139355503,-0.6240235774573413,4.0,119.021464
616,20.70214831166923,-0.9031501334663967,20.567718777177873,-0.9843263556103372,4.0,119.021464
617,20.73575569529207,-1.1224049002473793,20.60132616080071,-1.2301343113377585,4.0,119.021464
618,20.76936307891491,-1.1349933116757767,21.239866449634665,-1.3750467532498882,-14.0,-416.57512399999996
619,20.80297046253775,-0.901602139751,21.273473833257505,-1.033484391811298,-14.0,-416.57512399999996
620,20.83657784616059,-0.47690000801659377,20.702148311669234,-0.027868043976906613,4.0,119.021464
621,20.870185229783427,0.019096779072882313,20.73575569529207,0.8061793861080729,4.0,119.021464
622,20.903792613406267,0.458660399525055,20.769363078914907,1.4772133476667313,4.0,119.021464
623,20.937399997029107,0.7610051563541255,20.80297046253775,1.7729307495357742,4.0,119.021464
624,20.971007380651947,0.9167432514460825,21.40790336774886,1.8975769793775574,-13.0,-386.819758
625,21.004614764274788,0.97318599820731,21.441510751371702,1.9225085953089298,-13.0,-386.819758
626,21.038222147897628,0.9928818328491724,21.475118134994542,1.520393547154485,-13.0,-386.819758
627,21.071829531520468,1.0117687578327275,21.508725518617382,0.8758855283136371,-13.0,-386.819758
628,21.105436915143308,1.021617318114996,21.542332902240222,0.22627874799949577,-13.0,-386.819758
629,21.139044298766144,0.9834694575380475,21.57594028586306,-0.24213144017395827,-13.0,-386.819758
630,21.172651682388985,0.8571546877504301,21.6095476694859,-0.4619107668810628,-13.0,-386.819758
631,21.206259066011825,0.624486397257046,21.64315505310874,-0.4919417861507317,-13.0,-386.819758
632,21.239866449634665,0.2954731472689212,21.67676243673158,-0.46950663001103,-13.0,-386.819758
633,21.273473833257505,-0.09601880977355105,21.71036982035442,-0.5332544218658897,-13.0,-386.819758
634,21.307081216880345,-0.49614744142190625,21.74397720397726,-0.7505022495364363,-13.0,-386.819758
635,21.340688600503185,-0.8338921385170146,21.7775845876001,-1.0777242939285303,-13.0,-386.819758
636,21.374295984126025,-1.0327627805446824,21.81119197122294,-1.371042174076408,-13.0,-386.819758
637,21.40790336774886,-1.0378857035909386,21.844799354845776,-1.4463472222419533,-13.0,-386.819758
638,21.441510751371702,-0.8485875985434874,21.878406738468616,-1.1681126425460326,-13.0,-386.819758
639,21.475118134994542,-0.5330874348308267,21.912014122091456,-0.5281683166534913,-13.0,-386.819758
640,21.508725518617382,-0.20703642024132823,21.945621505714296,0.3275787848769397,-13.0,-386.819758
641,21.542332902240222,0.018302484729470818,21.979228889337136,1.146228394496524,-13.0,-386.819758
642,21.575940285863062,0.08826145622118942,22.012836272959976,1.6722848718248038,-13.0,-386.819758
643,21.609547669485902,0.024349835484529788,22.046443656582817,1.7586604122305474,-13.0,-386.819758
644,21.643155053108742,-0.10066639954024617,22.080051040205657,1.426986194816535,-13.0,-386.819758
645,21.67676243673158,-0.21536789717448487,22.113658423828493,0.8468910057857372,-13.0,-386.819758
646,21.71036982035442,-0.2968927585875403,22.147265807451333,0.24767163061272568,-13.0,-386.819758
647,21.74397720397726,-0.3844184424566387,22.180873191074173,-0.18986467081945688,-13.0,-386.819758
648,21.7775845876001,-0.5506194473885405,22.214480574697014,-0.4065182796380685,-13.0,-386.819758
649,21.81119197122294,-0.845701216508615,22.248087958319854,-0.46911542153267377,-13.0,-386.819758
650,21.84479935484578,-1.2438507810130606,22.281695341942694,-0.5090375472806702,-13.0,-386.819758
651,21.87840673846862,-1.6233371067831561,22.315302725565534,-0.6308004867007782,-13.0,-386.819758
652,21.91201412209146,-1.7971962956099523,22.348910109188374,-0.8408545878825316,-13.0,-386.819758
653,21.9456215057143,-1.5866213139925107,22.382517492811214,-1.0356650211149696,-13.0,-386.819758
654,21.979228889337136,-0.9057675004777928,22.41612487643405,-1.056645382040713,-13.0,-386.819758
655,22.012836272959976,0.18245759874198808,22.44973226005689,-0.7827316399162508,-13.0,-386.819758
656,22.046443656582817,1.4682686710896826,22.48333964367973,-0.20916076157073893,-13.0,-386.819758
657,22.080051040205657,2.655870212138845,22.51694702730257,0.5322123198157263,-13.0,-386.819758
658,22.113658423828497,3.458495823521061,22.55055441092541,1.2225463385220667,-13.0,-386.819758
659,22.147265807451337,3.691852468422031,22.58416179454825,1.648486361544162,-13.0,-386.819758
660,22.180873191074177,3.3338065885861043,22.61776917817109,1.6902403699548387,-13.0,-386.819758
661,22.214480574697017,2.528735666646322,22.65137656179393,1.3649674226462434,-13.0,-386.819758
662,22.248087958319854,1.5313256897187573,22.684983945416768,0.8102212263668032,-13.0,-386.819758
663,22.281695341942694,0.6080077482580357,22.718591329039608,0.21988720461735145,-13.0,-386.819758
664,22.315302725565534,-0.0635171302530901,22.752198712662448,-0.23677206505932136,-13.0,-386.819758
665,22.348910109188374,-0.4510020718720838,22.785806096285288,-0.4788872069564112,-13.0,-386.819758
666,22.382517492811214,-0.6548295278845472,22.81941347990813,-0.5361190817449691,-13.0,-386.819758
667,22.416124876434054,-0.8348829419376103,22.85302086353097,-0.5219194154202245,-13.0,-386.819758
668,22.449732260056894,-1.1157510219611615,22.88662824715381,-0.5694701229542426,-13.0,-386.819758
669,22.483339643679734,-1.517010847638086,22.92023563077665,-0.7570786994080976,-13.0,-386.819758
670,22.51694702730257,-1.9408869669426159,22.953843014399485,-1.0566370213378224,-13.0,-386.819758
671,22.55055441092541,-2.22181786428881,22.987450398022325,-1.3328566716442927,-13.0,-386.819758
672,22.58416179454825,-2.2129912910519907,23.021057781645165,-1.400902654757378,-13.0,-386.819758
673,22.61776917817109,-1.8653782304654285,23.054665165268005,-1.1210221357470205,-13.0,-386.819758
674,22.65137656179393,-1.2569971542898635,23.088272548890846,-0.4844185031381468,-13.0,-386.819758
675,22.68498394541677,-0.5572614951861541,23.121879932513686,0.35833280744723384,-13.0,-386.819758
676,22.71859132903961,0.051537321007194076,23.155487316136526,1.1488353538137985,-13.0,-386.819758
677,22.75219871266245,0.4510251693498981,23.189094699759366,1.631090701344281,-13.0,-386.819758
678,22.785806096285288,0.622850446430723,23.222702083382202,1.664554579126021,-13.0,-386.819758
679,22.81941347990813,0.631940762408054,23.256309467005043,1.2819312917942796,-13.0,-386.819758
680,22.85302086353097,0.5744007378287936,23.289916850627883,0.6645544120603202,-13.0,-386.819758
681,22.88662824715381,0.5231692570015511,23.323524234250723,0.05177224051969939,-13.0,-386.819758
682,22.92023563077665,0.49913668028847036,23.357131617873563,-0.3682285646656203,-13.0,-386.819758
683,22.95384301439949,0.47554154232114065,23.390739001496403,-0.5338168601721305,-13.0,-386.819758
684,22.98745039802233,0.4045702804446394,23.424346385119243,-0.5186395182711018,-13.0,-386.819758
685,23.02105778164517,0.24888259352151726,22.281695341942697,-0.5090375472806831,22.0,654.6180519999999
686,23.054665165268005,0.006046738985363128,22.315302725565534,-0.6308004867007782,22.0,654.6180519999999
687,23.088272548890846,-0.2798950790490906,22.348910109188374,-0.8408545878825316,22.0,654.6180519999999
688,23.121879932513686,-0.5244949638168749,22.382517492811214,-1.0356650211149696,22.0,654.6180519999999
689,23.155487316136526,-0.6298484224587904,22.416124876434054,-1.0566453820407151,22.0,654.6180519999999
690,23.189094699759366,-0.5260028688928984,22.449732260056894,-0.7827316399162219,22.0,654.6180519999999
691,23.222702083382206,-0.20766550968765946,22.483339643679734,-0.20916076157067828,22.0,654.6180519999999
692,23.256309467005046,0.25478685925874917,23.69320545410196,0.5549813444952686,-13.0,-386.819758
693,23.289916850627886,0.7374575975257471,23.7268128377248,1.3343941097559873,-13.0,-386.819758
694,23.323524234250723,1.1077275868964243,23.760420221347637,1.8210328355485752,-13.0,-386.819758
695,23.357131617873563,1.271403168288147,23.794027604970477,1.8506478933928634,-13.0,-386.819758
696,23.390739001496403,1.203005198423378,23.827634988593317,1.4388749826202467,-13.0,-386.819758
697,23.424346385119243,0.9480561758242632,23.861242372216157,0.7659552546563393,-13.0,-386.819758
698,23.457953768742083,0.5975187984839351,23.894849755838997,0.08447123742523904,-13.0,-386.819758
699,23.491561152364923,0.24591773805544184,23.928457139461837,-0.3992514463734944,-13.0,-386.819758
700,23.525168535987763,-0.047628767983712066,23.962064523084678,-0.6105848996737392,-13.0,-386.819758
701,23.558775919610603,-0.2764200016138953,23.995671906707518,-0.6207708032183179,-13.0,-386.819758
702,23.59238330323344,-0.4727575367134047,24.029279290330354,-0.5884539875361787,-13.0,-386.819758
703,23.62599068685628,-0.6724443538624899,24.062886673953194,-0.660857937641275,-13.0,-386.819758
704,23.65959807047912,-0.8779768468969565,24.096494057576034,-0.8841316266923046,-13.0,-386.819758
705,23.69320545410196,-1.0420802547624395,24.130101441198875,-1.1678378585007936,-13.0,-386.819758
706,23.7268128377248,-1.0837369482447852,24.163708824821715,-1.3240995266366828,-13.0,-386.819758
707,23.76042022134764,-0.9325443969182958,24.197316208444555,-1.1661201619728558,-13.0,-386.819758
708,23.79402760497048,-0.5787784535194477,24.230923592067395,-0.618373914789463,-13.0,-386.819758
709,23.82763498859332,-0.09726253007314363,24.264530975690235,0.2207941433807848,-13.0,-386.819758
710,23.861242372216157,0.37516794782795865,24.29813835931307,1.1032335787824208,-13.0,-386.819758
711,23.894849755838997,0.7002261497426826,24.33174574293591,1.7353603841708085,-13.0,-386.819758
712,23.928457139461837,0.8033471180296387,24.36535312655875,1.9107110510813476,-13.0,-386.819758
713,23.962064523084678,0.7063661733282254,24.398960510181592,1.6012432554598903,-13.0,-386.819758
714,23.995671906707518,0.5092548664074855,24.432567893804432,0.9608772736474334,-13.0,-386.819758
715,24.029279290330358,0.331118280840893,24.466175277427272,0.24333876218727754,-13.0,-386.819758
716,24.062886673953198,0.24354644842181838,24.499782661050112,-0.3194208221648419,-13.0,-386.819758
717,24.096494057576038,0.23415146521486427,24.499782661050112,-0.3194208221648419,-12.0,-357.064392
718,24.130101441198875,0.22082358395257515,24.53339004467295,-0.6161268606890142,-12.0,-357.064392
719,24.163708824821715,0.10711911038986942,24.566997428295792,-0.6871856592858228,-12.0,-357.064392
720,24.197316208444555,-0.1543375891244049,24.60060481191863,-0.6787944760671929,-12.0,-357.064392
721,24.230923592067395,-0.5254567696811637,24.298138359313075,1.103233578782514,-2.0,-59.510732
722,24.264530975690235,-0.8909728958131266,24.331745742935915,1.7353603841708753,-2.0,-59.510732
723,24.298138359313075,-1.1066110693686002,24.365353126558755,1.910711051081366,-2.0,-59.510732
724,24.331745742935915,-1.0648759346031185,24.398960510181595,1.6012432554598226,-2.0,-59.510732
725,24.365353126558755,-0.747559083632253,24.432567893804435,0.9608772736473575,-2.0,-59.510732
726,24.398960510181592,-0.23839591109435418,24.466175277427272,0.24333876218727754,-2.0,-59.510732
727,24.432567893804432,0.3114438568115587,24.499782661050112,-0.3194208221648419,-2.0,-59.510732
728,24.466175277427272,0.7469068145214924,24.533390044672952,-0.6161268606890455,-2.0,-59.510732
729,24.499782661050112,0.9684946951067033,24.903071264524186,1.6725787472386695,-12.0,-357.064392
730,24.533390044672952,0.9603149409750878,24.93667864814703,2.026142074730404,-12.0,-357.064392
731,24.566997428295792,0.7801000793302586,24.970286031769866,1.8813615607594973,-12.0,-357.064392
732,24.600604811918632,0.5231688390766819,25.00389341539271,1.3449892927468436,-12.0,-357.064392
733,24.634212195541473,0.27882973942725825,25.037500799015547,0.6509383820442803,-12.0,-357.064392
734,24.66781957916431,0.09552701577553414,25.071108182638383,0.04688584172204224,-12.0,-357.064392
735,24.70142696278715,-0.03330657112452283,25.104715566261227,-0.31464824330966157,-12.0,-357.064392
736,24.73503434640999,-0.15651885153482453,25.138322949884063,-0.42946594027993024,-12.0,-357.064392
737,24.76864173003283,-0.3291519613137169,25.171930333506907,-0.4179803753504739,-12.0,-357.064392
738,24.80224911365567,-0.5689305361985164,24.634212195541473,-0.7474029962349552,5.0,148.77683
739,24.83585649727851,-0.8295889268795302,24.667819579164313,-0.9631282872487082,5.0,148.77683
740,24.86946388090135,-1.011216117397611,24.701426962787153,-1.260363452932311,5.0,148.77683
741,24.90307126452419,-1.0085291819695321,24.735034346409993,-1.4623153747187068,5.0,148.77683
742,24.936678648147026,-0.77223999040968,24.76864173003283,-1.3709929315115261,5.0,148.77683
743,24.970286031769866,-0.34516552422947744,24.80224911365567,-0.8795809685406463,5.0,148.77683
744,25.003893415392707,0.15181549200092173,24.83585649727851,-0.04819256084059493,5.0,148.77683
745,25.037500799015547,0.5754531369454913,24.86946388090135,0.9010824484381563,5.0,148.77683
746,25.071108182638387,0.8226252206907346,24.90307126452419,1.672578747238751,5.0,148.77683
747,25.104715566261227,0.8658949112796661,24.93667864814703,2.026142074730404,5.0,148.77683
748,25.138322949884067,0.7505265582575535,24.97028603176987,1.8813615607594407,5.0,148.77683
749,25.171930333506907,0.5628382998061359,25.00389341539271,1.3449892927468436,5.0,148.77683
750,25.205537717129744,0.38824652083175587,25.037500799015547,0.6509383820442803,5.0,148.77683
751,25.239145100752584,0.2761402643018974,25.071108182638387,0.04688584172197838,5.0,148.77683
752,25.272752484375424,0.22407100485230813,25.104715566261227,-0.31464824330966157,5.0,148.77683
753,25.306359867998264,0.1865940422826411,25.138322949884067,-0.4294659402799424,5.0,148.77683
754,25.339967251621104,0.10447204660171237,25.171930333506907,-0.4179803753504739,5.0,148.77683
755,25.373574635243944,-0.05864078689815109,25.205537717129747,-0.44092691684313967,5.0,148.77683
756,25.407182018866784,-0.2885246489321977,25.239145100752587,-0.5987370595644262,5.0,148.77683
757,25.440789402489624,-0.5157930929314017,25.272752484375427,-0.8660947598321118,5.0,148.77683
758,25.47439678611246,-0.6403489455369602,25.306359867998264,-1.0968317257488096,5.0,148.77683
759,25.5080041697353,-0.5777159599097562,25.339967251621104,-1.100177323539312,5.0,148.77683
760,25.54161155335814,-0.30612404383804814,25.373574635243944,-0.7515847959761652,5.0,148.77683
761,25.57521893698098,0.11196758538934999,25.407182018866784,-0.0788786197839003,5.0,148.77683
762,25.60882632060382,0.5496644077841015,25.440789402489624,0.7273240016803828,5.0,148.77683
763,25.64243370422666,0.8701387775857287,25.474396786112464,1.3907748715765607,5.0,148.77683
764,25.6760410878495,0.9880850197931343,25.508004169735305,1.676337245252415,5.0,148.77683
765,25.70964847147234,0.9041940606592532,25.541611553358145,1.4987231319972765,5.0,148.77683
766,25.743255855095178,0.6935225062489672,25.57521893698098,0.9559457097732829,5.0,148.77683
767,25.77686323871802,0.45642832709496467,25.60882632060382,0.27326955177105394,5.0,148.77683
768,25.81047062234086,0.26240844257952434,25.64243370422666,-0.30857267853813886,5.0,148.77683
769,25.8440780059637,0.11801622809484585,25.6760410878495,-0.641737734353641,5.0,148.77683
770,25.87768538958654,-0.027037808595988908,25.70964847147234,-0.7244442428495446,5.0,148.77683
771,25.91129277320938,-0.2419151921214807,25.74325585509518,-0.6784851300613356,5.0,148.77683
772,25.94490015683222,-0.564807739512245,25.776863238718022,-0.6674898841469088,5.0,148.77683
773,25.97850754045506,-0.9665630311956012,25.810470622340862,-0.7983385705300271,5.0,148.77683
774,26.012114924077895,-1.349153574301606,25.8440780059637,-1.0543196583346375,5.0,148.77683
775,26.045722307700736,-1.585074477607521,25.87768538958654,-1.294027724253472,5.0,148.77683
776,26.079329691323576,-1.5807207292089342,25.91129277320938,-1.319963414515831,5.0,148.77683
777,26.112937074946416,-1.3287198772291948,25.94490015683222,-0.9861856574284631,5.0,148.77683
778,26.146544458569256,-0.916342285590407,25.97850754045506,-0.29071105727644814,5.0,148.77683
779,26.180151842192096,-0.4828443141710986,26.0121149240779,0.5992244723955802,5.0,148.77683
780,26.213759225814936,-0.15121482235391784,26.04572230770074,1.408472043737903,5.0,148.77683
781,26.247366609437776,0.02501660045596563,26.07932969132358,1.8740511465083323,5.0,148.77683
782,26.280973993060613,0.07163740151577558,26.112937074946416,1.8624216063256611,5.0,148.77683
783,26.314581376683453,0.060973509998844794,26.146544458569256,1.4237052443505165,5.0,148.77683
784,26.348188760306293,0.06177584135897105,26.180151842192096,0.757945701315543,5.0,148.77683
785,26.381796143929133,0.10241055985139283,26.213759225814936,0.11519909165381095,5.0,148.77683
786,26.415403527551973,0.1645252141596117,26.247366609437776,-0.3176937774494535,5.0,148.77683
787,26.449010911174813,0.20445518674885785,26.280973993060616,-0.48940944775230155,5.0,148.77683
788,26.482618294797653,0.18583579797770367,26.314581376683456,-0.48547432166164073,5.0,148.77683
789,26.516225678420493,0.10493007618428661,26.348188760306297,-0.46330525970276665,5.0,148.77683
790,26.54983306204333,-0.0012533973218291302,26.381796143929133,-0.5551165077819361,5.0,148.77683
791,26.58344044566617,-0.06296334765337619,26.415403527551973,-0.7865110067709041,5.0,148.77683
792,26.61704782928901,0.0031655857833339115,26.449010911174813,-1.0519410054545424,5.0,148.77683
793,26.65065521291185,0.26592489457676727,26.482618294797653,-1.162762714367275,5.0,148.77683
794,26.68426259653469,0.7451493440024423,26.516225678420493,-0.9478914000268786,5.0,148.77683
795,26.71786998015753,1.3835329250548793,26.549833062043334,-0.357001128207856,5.0,148.77683
796,26.75147736378037,2.0451355116923957,26.583440445666174,0.49036265706453336,5.0,148.77683
797,26.78508474740321,2.5537432620791702,26.617047829289014,1.3411787872115613,5.0,148.77683
798,26.818692131026047,2.7609300946342032,26.65065521291185,1.9161867189645387,5.0,148.77683
799,26.852299514648887,2.6104341919165495,26.68426259653469,2.0332551237282197,5.0,148.77683
800,26.885906898271728,2.161709417221722,26.71786998015753,1.683459774102297,5.0,148.77683
801,26.919514281894568,1.5565864833261878,26.75147736378037,1.0239256630834364,5.0,148.77683
802,26.953121665517408,0.9456594088476539,26.78508474740321,0.29654425085099556,5.0,148.77683
803,26.986729049140248,0.4150021674000651,26.81869213102605,-0.2828912655577079,5.0,148.77683
804,27.020336432763088,-0.044792589173748336,26.85229951464889,-0.6116723835364296,5.0,148.77683
805,27.053943816385928,-0.5090857202619306,26.88590689827173,-0.7265920218325305,5.0,148.77683
806,27.087551200008765,-1.0486774881548515,26.919514281894568,-0.7629704274651382,5.0,148.77683
807,27.121158583631605,-1.664838460806439,26.953121665517408,-0.8685583363869119,5.0,148.77683
808,27.154765967254445,-2.2714120440709213,26.986729049140248,-1.1133535937512615,5.0,148.77683
809,27.188373350877285,-2.7325405716981077,27.020336432763088,-1.4393553046871859,5.0,148.77683
810,27.221980734500125,-2.930706399507958,27.053943816385928,-1.6788243993352703,5.0,148.77683
811,27.255588118122965,-2.8267315785652256,27.087551200008768,-1.638063142098904,5.0,148.77683
812,27.289195501745805,-2.4812882553071147,27.12115858363161,-1.207630064192834,5.0,148.77683
813,27.322802885368645,-2.0268003609625995,27.490839803482842,-0.41211432189277003,-5.0,-148.77683
814,27.356410268991482,-1.6027397117542987,27.52444718710568,-0.4245939546427131,-5.0,-148.77683
815,27.390017652614322,-1.2883799685653956,27.55805457072852,-0.3983936185102712,-5.0,-148.77683
816,27.423625036237162,-1.0717026408967703,27.59166195435136,-0.28929042902930996,-5.0,-148.77683
817,27.457232419860002,-0.8733085618122209,27.6252693379742,-0.05189520014264381,-5.0,-148.77683
818,27.490839803482842,-0.6098778504375505,25.91129277320938,-1.319963414515831,47.0,1398.502202
819,27.524447187105682,-0.2559070113345762,25.94490015683222,-0.9861856574284631,47.0,1398.502202
820,27.558054570728522,0.13665398144919327,25.94490015683222,-0.9861856574284631,48.0,1428.257568
821,27.591661954351363,0.473181584881085,25.97850754045506,-0.29071105727644814,48.0,1428.257568
822,27.6252693379742,0.6812341648766321,26.012114924077895,0.5992244723954946,48.0,1428.257568
823,27.65887672159704,0.7614837124773892,26.045722307700736,1.4084720437378537,48.0,1428.257568
824,27.69248410521988,0.7910495823101819,26.079329691323576,1.8740511465083336,48.0,1428.257568
825,27.72609148884272,0.8769164902254873,26.112937074946416,1.8624216063256611,48.0,1428.257568
826,27.75969887246556,1.0880627429910141,26.146544458569256,1.4237052443505165,48.0,1428.257568
827,27.7933062560884,1.4074161097012663,26.180151842192096,0.757945701315543,48.0,1428.257568
828,27.82691363971124,1.7332287945971052,26.213759225814936,0.11519909165381095,48.0,1428.257568
829,27.86052102333408,1.9306854360520447,26.247366609437776,-0.3176937774494535,48.0,1428.257568
830,27.894128406956916,1.9034252898705164,26.280973993060613,-0.48940944775230194,48.0,1428.257568
831,27.927735790579757,1.640504125355562,26.314581376683453,-0.48547432166164306,48.0,1428.257568
832,27.961343174202597,1.211882951382637,26.348188760306293,-0.46330525970275693,48.0,1428.257568
833,27.994950557825437,0.7256566208469952,26.381796143929133,-0.5551165077819361,48.0,1428.257568
834,28.028557941448277,0.2868379193260469,26.415403527551973,-0.7865110067709041,48.0,1428.257568
835,28.062165325071117,-0.01640826126073448,26.449010911174813,-1.0519410054545424,48.0,1428.257568
836,28.095772708693957,-0.11079148141960264,26.482618294797653,-1.162762714367275,48.0,1428.257568
837,28.129380092316797,0.04904237383439732,26.516225678420493,-0.9478914000268786,48.0,1428.257568
838,28.162987475939634,0.44188688845681345,28.39823916129951,1.3737224610201233,-7.0,-208.28756199999998
839,28.196594859562474,0.9448775678616419,28.43184654492235,0.7950135686888066,-7.0,-208.28756199999998
840,28.230202243185314,1.349017603144602,28.46545392854519,0.173203590843565,-7.0,-208.28756199999998
841,28.263809626808154,1.4445237231307897,28.49906131216803,-0.3036989812609551,-7.0,-208.28756199999998
842,28.297417010430994,1.1384684685729152,28.53266869579087,-0.5683921847759332,-7.0,-208.28756199999998
843,28.331024394053834,0.5275581753852816,28.56627607941371,-0.6776323383695191,-7.0,-208.28756199999998
844,28.364631777676674,-0.13686982447830884,28.59988346303655,-0.7416368103854408,-7.0,-208.28756199999998
845,28.398239161299514,-0.5881608025361262,28.63349084665939,-0.8272207831439392,-7.0,-208.28756199999998
846,28.43184654492235,-0.7084847800645606,28.667098230282228,-0.8982656252918387,-7.0,-208.28756199999998
847,28.46545392854519,-0.609383284576991,26.852299514648887,-0.6116723835364175,48.0,1428.257568
848,28.49906131216803,-0.5668810969362523,26.885906898271728,-0.7265920218325266,48.0,1428.257568
849,28.53266869579087,-0.8446848232267994,26.919514281894568,-0.7629704274651382,48.0,1428.257568
850,28.56627607941371,-1.5164665165700286,26.953121665517408,-0.8685583363869119,48.0,1428.257568
851,28.59988346303655,-2.4013190388493686,26.986729049140248,-1.1133535937512615,48.0,1428.257568
852,28.63349084665939,-3.1535171925564867,27.020336432763088,-1.4393553046871859,48.0,1428.257568
853,28.66709823028223,-3.450836145649282,28.90234991564211,1.5191221936611716,-7.0,-208.28756199999998
854,28.70070561390507,-3.1679527033143375,28.935957299264945,1.0037976330234213,-7.0,-208.28756199999998
855,28.73431299752791,-2.4353607554386785,28.969564682887786,0.32926748227417846,-7.0,-208.28756199999998
856,28.76792038115075,-1.5563213752010585,28.230202243185314,-0.5124068776174827,16.0,476.085856
857,28.80152776477359,-0.8369923051964997,28.263809626808154,0.25415627733361795,16.0,476.085856
858,28.83513514839643,-0.429494275737845,28.297417010430994,1.032454501653896,16.0,476.085856
859,28.86874253201927,-0.2743147854556307,28.331024394053834,1.565341870716495,16.0,476.085856
860,28.90234991564211,-0.1686347346024942,28.364631777676674,1.6814062011491893,16.0,476.085856
861,28.93595729926495,0.08645340071893645,28.398239161299514,1.3737224610200909,16.0,476.085856
862,28.969564682887786,0.5530045919307564,28.43184654492235,0.7950135686888066,16.0,476.085856
863,29.003172066510626,1.1200936622944246,28.46545392854519,0.173203590843565,16.0,476.085856
864,29.036779450133466,1.5826238456366655,28.49906131216803,-0.3036989812609551,16.0,476.085856
865,29.070386833756306,1.776369314253397,28.53266869579087,-0.5683921847759332,16.0,476.085856
866,29.103994217379146,1.6780720991025069,28.56627607941371,-0.6776323383695191,16.0,476.085856
867,29.137601601001986,1.41380585947017,28.59988346303655,-0.7416368103854408,16.0,476.085856
868,29.171208984624826,1.1848441124933664,28.63349084665939,-0.8272207831439392,16.0,476.085856
869,29.204816368247666,1.1641776634168957,28.66709823028223,-0.8982656252918463,16.0,476.085856
870,29.238423751870503,1.417351019691118,28.70070561390507,-0.8342110548910648,16.0,476.085856
871,29.272031135493343,1.8755382563852367,28.73431299752791,-0.517452133884081,16.0,476.085856
872,29.305638519116183,2.363153319113055,28.76792038115075,0.06621807440914305,16.0,476.085856
873,29.339245902739023,2.666935576751728,28.80152776477359,0.7824149111296289,16.0,476.085856
874,29.372853286361863,2.6225218650555506,28.83513514839643,1.393686502805935,16.0,476.085856
875,29.406460669984703,2.1847433785339603,29.103994217379146,-0.9475977879421552,9.0,267.798294
876,29.440068053607543,1.4477615478325652,29.137601601001986,-1.0303356984480168,9.0,267.798294
877,29.473675437230384,0.6000485298650734,28.93595729926495,1.0037976330233667,16.0,476.085856
878,29.50728282085322,-0.16679957827987907,28.969564682887786,0.32926748227417846,16.0,476.085856
879,29.54089020447606,-0.7466607380519438,29.003172066510626,-0.27920597306825307,16.0,476.085856
880,29.5744975880989,-1.1535908397614665,29.036779450133466,-0.680934618502679,16.0,476.085856
881,29.60810497172174,-1.4833646808634096,29.070386833756306,-0.8703778096599128,16.0,476.085856
882,29.64171235534458,-1.8292827667728953,29.103994217379146,-0.9475977879421552,16.0,476.085856
883,29.67531973896742,-2.207032582563533,29.137601601001986,-1.0303356984480168,16.0,476.085856
884,29.70892712259026,-2.5335388941499226,29.171208984624826,-1.1610804356199609,16.0,476.085856
885,29.7425345062131,-2.6694925545277535,29.204816368247666,-1.2655017960795603,16.0,476.085856
886,29.776141889835937,-2.499594907683864,29.238423751870503,-1.190389504905951,16.0,476.085856
887,29.809749273458777,-2.005646932969348,29.272031135493343,-0.8028273463140497,16.0,476.085856
888,29.843356657081618,-1.2916138069068808,29.305638519116183,-0.09291908713468043,16.0,476.085856
889,29.876964040704458,-0.5451491966279391,29.5744975880989,-0.4745979359756695,9.0,267.798294
890,29.910571424327298,0.04528609323987758,29.60810497172174,-0.7038141097916754,9.0,267.798294
891,29.944178807950138,0.3741074152503456,29.64171235534458,-0.7787147501015211,9.0,267.798294
892,29.977786191572978,0.4586499514033258,29.67531973896742,-0.8410776935675378,9.0,267.798294
893,30.011393575195818,0.41373129002099335,29.70892712259026,-0.9787155998352695,9.0,267.798294
894,30.045000958818655,0.37458638929847854,29.742534506213097,-1.1600949259992448,9.0,267.798294
895,30.078608342441495,0.4131317928702059,29.776141889835937,-1.244648228175155,9.0,267.798294
896,30.112215726064335,0.4986319234907165,29.809749273458777,-1.0662598611692853,9.0,267.798294
897,30.145823109687175,0.5271374536342973,29.843356657081618,-0.5445637207960652,9.0,267.798294
898,30.179430493310015,0.4005744364743944,29.876964040704458,0.24138935240032536,9.0,267.798294
899,30.213037876932855,0.10504470011667254,29.910571424327298,1.0649268790750972,9.0,267.798294
900,30.246645260555695,-0.2615353984360572,29.944178807950138,1.6484489687943586,9.0,267.798294
901,30.280252644178535,-0.5310721368155669,29.977786191572978,1.7938396165772128,9.0,267.798294
902,30.313860027801372,-0.5524394137495647,30.011393575195815,1.4749547729128698,9.0,267.798294
903,30.347467411424212,-0.2731639811062775,30.045000958818655,0.8430710203981966,9.0,267.798294
904,30.381074795047052,0.23090822356382293,30.381074795047052,-0.7315050209963874,0.0,0.0
905,30.414682178669892,0.7927405706269677,30.414682178669892,-0.09481550191530926,0.0,0.0
906,30.448289562292732,1.2343661520134461,30.448289562292732,0.7079941883304632,0.0,0.0
907,30.481896945915572,1.4445849330500893,30.481896945915572,1.4141325687362514,0.0,0.0
908,30.515504329538413,1.4142718778473586,30.515504329538413,1.772709816316866,0.0,0.0
909,30.549111713161253,1.21703988708363,30.549111713161253,1.6659964382918566,0.0,0.0
910,30.58271909678409,0.9538028999598523,30.58271909678409,1.1630322222655387,0.0,0.0
911,30.61632648040693,0.6961014884685335,30.078608342441495,0.14597980922409426,16.0,476.085856
912,30.64993386402977,0.45835798266011196,30.112215726064335,-0.3927862860151123,16.0,476.085856
913,30.68354124765261,0.20941981271390014,30.145823109687175,-0.6709584566849901,16.0,476.085856
914,30.71714863127545,-0.0887269370264822,30.179430493310015,-0.7338308763670771,16.0,476.085856
915,30.75075601489829,-0.4406838926291385,30.213037876932855,-0.7213788273533431,16.0,476.085856
916,30.78436339852113,-0.8001144861488847,30.246645260555695,-0.7681752612414606,16.0,476.085856
917,30.81797078214397,-1.0850044822249036,30.280252644178535,-0.9118892260230099,16.0,476.085856
918,30.851578165766806,-1.2163398799100318,30.313860027801372,-1.0620577850778297,16.0,476.085856
919,30.885185549389647,-1.1567341491466765,30.58271909678409,1.1630322222655387,9.0,267.798294
920,30.918792933012487,-0.9258714869764977,30.61632648040693,0.4783547457030831,9.0,267.798294
921,30.952400316635327,-0.5859237471556727,30.64993386402977,-0.1382293484859951,9.0,267.798294
922,30.986007700258167,-0.2111393494222807,30.68354124765261,-0.5198041575964024,9.0,267.798294
923,31.019615083881007,0.13615120175755124,30.71714863127545,-0.6474093191794452,9.0,267.798294
924,31.053222467503847,0.4123981739844825,30.75075601489829,-0.6323138397509173,9.0,267.798294
925,31.086829851126687,0.5897597339552372,30.78436339852113,-0.6300704064273293,9.0,267.798294
926,31.120437234749524,0.655634787829042,31.120437234749524,1.2618461185653698,0.0,0.0
927,31.154044618372364,0.6166441978274506,31.154044618372364,0.6814712738986576,0.0,0.0
928,31.187652001995204,0.4970841869598546,31.187652001995204,0.059014859839248826,0.0,0.0
929,31.221259385618044,0.32465372252040825,31.221259385618044,-0.3981064909076853,0.0,0.0
930,31.254866769240884,0.11208082695486098,31.254866769240884,-0.5994562116750521,0.0,0.0
931,31.288474152863724,-0.14607613068086725,31.288474152863724,-0.5959617670407023,0.0,0.0
932,31.322081536486564,-0.4518005334086619,31.322081536486564,-0.5302984196622467,0.0,0.0
933,31.355688920109404,-0.7713339935894584,31.355688920109404,-0.5426191003093739,0.0,0.0
934,31.38929630373224,-1.0219212950694054,31.38929630373224,-0.6824537647957454,0.0,0.0
935,31.42290368735508,-1.0977319018943994,31.42290368735508,-0.8742799537652699,0.0,0.0
936,31.45651107097792,-0.9255825401515685,31.45651107097792,-0.9569723083153852,0.0,0.0
937,31.49011845460076,-0.5150283547169587,31.49011845460076,-0.7779824315296686,0.0,0.0
938,31.5237258382236,0.03249626613559159,31.5237258382236,-0.2912985447751188,0.0,0.0
939,31.55733322184644,0.5634438407934927,31.55733322184644,0.39720362418469446,0.0,0.0
940,31.59094060546928,0.9368362433059216,31.59094060546928,1.0661032365508643,0.0,0.0
941,31.62454798909212,1.0779713362116925,31.62454798909212,1.479290225256231,0.0,0.0
942,31.65815537271496,0.9975226634848103,31.65815537271496,1.4970720577630596,0.0,0.0
943,31.6917627563378,0.7737152803636511,31.6917627563378,1.1385794705279506,0.0,0.0
944,31.72537013996064,0.5105548699351317,31.72537013996064,0.56540174271379,0.0,0.0
945,31.75897752358348,0.2912207295770742,31.75897752358348,-0.0010147191943864996,0.0,0.0
946,31.79258490720632,0.14582195108202226,31.79258490720632,-0.38370392941587383,0.0,0.0
947,31.82619229082916,0.04727090283222994,31.82619229082916,-0.5244365794721263,0.0,0.0
948,31.859799674452,-0.06284341527145017,31.859799674452,-0.49356524373264526,0.0,0.0
949,31.89340705807484,-0.23141177571729354,31.89340705807484,-0.4336227237448756,0.0,0.0
950,31.927014441697676,-0.45706786557124895,31.927014441697676,-0.46760848713236886,0.0,0.0
951,31.960621825320516,-0.6807214523405545,31.960621825320516,-0.6211043755127783,0.0,0.0
952,31.994229208943356,-0.8102273678368681,31.994229208943356,-0.8014889755332367,0.0,0.0
953,32.027836592566196,-0.7671571881508639,32.027836592566196,-0.8484734923195727,0.0,0.0
954,32.06144397618903,-0.5310382527530975,32.06144397618903,-0.6309463710908559,0.0,0.0
955,32.095051359811876,-0.15696130537900554,32.095051359811876,-0.13638597808591915,0.0,0.0
956,32.12865874343471,0.24400401185742318,32.12865874343471,0.5008503029835355,0.0,0.0
957,32.162266127057556,0.5522012117399487,32.162266127057556,1.053485158461419,0.0,0.0
958,32.19587351068039,0.6898765939864828,32.19587351068039,1.31062377570231,0.0,0.0
959,32.22948089430324,0.6488408082674527,32.22948089430324,1.181866713345176,0.0,0.0
960,32.26308827792607,0.48297729374143716,32.26308827792607,0.7386387317758026,0.0,0.0
961,32.29669566154892,0.27309121304871814,32.29669566154892,0.1722589960010419,0.0,0.0
962,32.33030304517175,0.08577532565572876,32.33030304517175,-0.30496078906989965,0.0,0.0
963,32.36391042879459,-0.051804600943284124,32.36391042879459,-0.5606955323855158,0.0,0.0
964,32.39751781241743,-0.15221645967304512,32.39751781241743,-0.5937580305976273,0.0,0.0
965,32.43112519604027,-0.2492818091239968,32.43112519604027,-0.5127540771992833,0.0,0.0
966,32.464732579663114,-0.37294746568419485,32.464732579663114,-0.45800101914438696,0.0,0.0
967,32.49833996328595,-0.5267955759255086,32.49833996328595,-0.5111280850735923,0.0,0.0
968,32.531947346908794,-0.6750267437771433,32.531947346908794,-0.642507643172215,0.0,0.0
969,32.56555473053163,-0.7474540237497576,32.56555473053163,-0.7265955109447441,0.0,0.0
970,32.59916211415447,-0.668604974533648,32.59916211415447,-0.6183564033960692,0.0,0.0
971,32.63276949777731,-0.40273663598939047,32.63276949777731,-0.24857188050148996,0.0,0.0
972,32.66637688140015,0.010831397560560774,32.66637688140015,0.31783919145092276,0.0,0.0
973,32.69998426502299,0.45943028143019543,32.69998426502299,0.8977910964677911,0.0,0.0
974,32.73359164864583,0.8027435059262932,32.73359164864583,1.275032856113972,0.0,0.0
975,32.76719903226867,0.9401507732952229,32.76719903226867,1.3075405854834907,0.0,0.0
976,32.80080641589151,0.8602918247068032,32.80080641589151,0.9970913618442896,0.0,0.0
977,32.83441379951435,0.6418750937327024,32.83441379951435,0.4837613225811173,0.0,0.0
978,32.86802118313719,0.40453765015677745,32.86802118313719,-0.028304403130963506,0.0,0.0
979,32.901628566760024,0.2394856332084513,32.901628566760024,-0.3710843042672379,0.0,0.0
980,32.93523595038287,0.16118552830799324,32.93523595038287,-0.4863355398886276,0.0,0.0
981,32.968843334005705,0.1081357930042867,32.968843334005705,-0.4381255547262546,0.0,0.0
982,33.00245071762855,-0.007873342318849995,33.00245071762855,-0.36222534959838254,0.0,0.0
983,33.036058101251385,-0.23354873809158141,33.036058101251385,-0.38106171689874063,0.0,0.0
984,33.06966548487423,-0.5299823173490452,33.06966548487423,-0.5288803917911836,0.0,0.0
985,33.103272868497065,-0.7829067832896449,33.103272868497065,-0.7267097299956399,0.0,0.0
986,33.1368802521199,-0.8635981096251789,33.1368802521199,-0.8223694688507928,0.0,0.0
987,33.170487635742745,-0.7039516454529003,33.170487635742745,-0.6770678263456396,0.0,0.0
988,33.20409501936558,-0.3402055275860628,33.20409501936558,-0.2530264728606535,0.0,0.0
989,33.237702402988425,0.10063505426683464,33.237702402988425,0.3479997357826105,0.0,0.0
990,33.27130978661126,0.46288957416456294,33.27130978661126,0.9212087010259643,0.0,0.0
991,33.304917170234106,0.6360437558851402,33.304917170234106,1.2540282688996216,0.0,0.0
992,33.33852455385694,0.5995758889861117,33.33852455385694,1.2289373387877491,0.0,0.0
993,33.372131937479786,0.41857510355077937,33.372131937479786,0.8776398934360121,0.0,0.0
994,33.40573932110262,0.19895523117447875,33.40573932110262,0.35889906402722216,0.0,0.0
995,33.43934670472546,0.030011817315878493,33.43934670472546,-0.1247365730049136,0.0,0.0
996,33.4729540883483,-0.056420661493407236,33.4729540883483,-0.4249242024057222,0.0,0.0
997,33.50656147197114,-0.09271123984072478,33.50656147197114,-0.5097326047673314,0.0,0.0
998,33.54016885559398,-0.14731233636983154,33.54016885559398,-0.46100662599059483,0.0,0.0
999,33.57377623921682,-0.2762528638142951,33.57377623921682,-0.4119503994508505,0.0,0.0
1000,33.60738362283966,-0.4786234337328403,33.60738362283966,-0.4602905679983222,0.0,0.0
1001,33.6409910064625,-0.6816405655720547,33.6409910064625,-0.6048556457478862,0.0,0.0
1002,33.674598390085336,-0.769525471940236,33.674598390085336,-0.7415997467971674,0.0,0.0
1003,33.70820577370818,-0.646722492680167,33.70820577370818,-0.7235655790614722,0.0,0.0
1004,33.741813157331016,-0.3014080188740268,33.741813157331016,-0.4530875920705372,0.0,0.0
1005,33.77542054095386,0.17109070133600043,33.77542054095386,0.04654638977968912,0.0,0.0
1006,33.8090279245767,0.6045454014573165,33.8090279245767,0.6243707016444002,0.0,0.0
1007,33.84263530819954,0.8416510896192546,33.84263530819954,1.0682036821058383,0.0,0.0
1008,33.87624269182238,0.8139460784885308,33.87624269182238,1.2091052249431125,0.0,0.0
1009,33.90985007544522,0.5759500174668647,33.90985007544522,1.0054304058765748,0.0,0.0
1010,33.94345745906806,0.27213458302319354,33.94345745906806,0.5600902606017609,0.0,0.0
1011,33.97706484269089,0.05427217312892645,33.97706484269089,0.06345844585975435,0.0,0.0
1012,34.01067222631374,-0.0023632309692246866,34.01067222631374,-0.304565433156266,0.0,0.0
1013,34.044279609936574,0.06592504366365876,34.044279609936574,-0.4597764835208324,0.0,0.0
1014,34.07788699355942,0.14363646120081067,34.07788699355942,-0.44227614995442455,0.0,0.0
1015,34.111494377182254,0.11284292099080477,34.111494377182254,-0.3763425938760256,0.0,0.0
1016,34.1451017608051,-0.07295061077010793,34.1451017608051,-0.3859286663645602,0.0,0.0
1017,34.178709144427934,-0.3595180608267649,34.178709144427934,-0.5133048961035166,0.0,0.0
1018,34.21231652805077,-0.6206669988599809,34.21231652805077,-0.6868975112824968,0.0,0.0
1019,34.245923911673614,-0.7257248881751943,34.245923911673614,-0.7584461022358528,0.0,0.0
1020,34.27953129529645,-0.6072446665772598,34.27953129529645,-0.591316902859146,0.0,0.0
1021,34.313138678919294,-0.2937918203544505,34.313138678919294,-0.1509850160949631,0.0,0.0
1022,34.34674606254213,0.1057970773994082,34.34674606254213,0.4560720571840552,0.0,0.0
1023,34.380353446164975,0.4547447006854896,34.380353446164975,1.021613829993923,0.0,0.0
1024,34.41396082978781,0.6496381446216908,34.41396082978781,1.3341897662781887,0.0,0.0
1025,34.447568213410655,0.6619961830029761,34.447568213410655,1.2825709184792553,0.0,0.0
1026,34.48117559703349,0.541783244897473,34.48117559703349,0.9069770731166605,0.0,0.0
1027,34.51478298065633,0.3821593165200626,34.51478298065633,0.3723433704730172,0.0,0.0
1028,34.54839036427917,0.26407649325060617,34.54839036427917,-0.11814539315478674,0.0,0.0
1029,34.58199774790201,0.21104515467815974,34.58199774790201,-0.4209554030905486,0.0,0.0
1030,34.61560513152485,0.17980303641723616,34.61560513152485,-0.5113978329473936,0.0,0.0
1031,34.64921251514769,0.09226888153252037,34.64921251514769,-0.47728116201943566,0.0,0.0
1032,34.68281989877053,-0.10969875255303027,34.68281989877053,-0.4543158254034259,0.0,0.0
1033,34.71642728239337,-0.4176491919113625,34.71642728239337,-0.5389955256068212,0.0,0.0
1034,34.750034666016205,-0.7444457362453556,34.750034666016205,-0.725362340188906,0.0,0.0
1035,34.78364204963905,-0.9566207914465055,34.78364204963905,-0.9006341399968186,0.0,0.0
1036,34.817249433261885,-0.9392162781219546,34.817249433261885,-0.9052848632536082,0.0,0.0
1037,34.85085681688473,-0.6612535474927227,34.85085681688473,-0.6281531063476246,0.0,0.0
1038,34.884464200507566,-0.20370051178756574,34.884464200507566,-0.08432594685934343,0.0,0.0
1039,34.91807158413041,0.2712179451928416,34.91807158413041,0.5716067667150455,0.0,0.0
1040,34.951678967753246,0.5963030228914598,34.951678967753246,1.110092646743798,0.0,0.0
1041,34.98528635137609,0.6788766185415909,34.98528635137609,1.3364962669509168,0.0,0.0
1042,35.018893734998926,0.5381680661869059,35.22053803673597,-0.3707966829223598,-6.0,-178.532196
1043,35.05250111862176,0.2816852271698792,35.2541454203588,-0.3878427077451183,-6.0,-178.532196
1044,35.086108502244606,0.03866193584147109,35.28775280398165,-0.5332553106020662,-6.0,-178.532196
1045,35.11971588586744,-0.10894526616198798,35.32136018760448,-0.7491524239343809,-6.0,-178.532196
1046,35.153323269490286,-0.16095497935473754,35.35496757122733,-0.8840617127833424,-6.0,-178.532196
1047,35.18693065311312,-0.18401065668613906,35.388574954850164,-0.7775596564605893,-6.0,-178.532196
1048,35.22053803673597,-0.25864324582318354,35.42218233847301,-0.36013099353157585,-6.0,-178.532196
1049,35.2541454203588,-0.4192444754331089,35.2541454203588,-0.3878427077451183,0.0,0.0
1050,35.28775280398164,-0.6218760876545495,35.28775280398164,-0.5332553106020206,0.0,0.0
1051,35.32136018760448,-0.7599796821516461,35.32136018760448,-0.7491524239343809,0.0,0.0
1052,35.35496757122732,-0.7208810103492745,35.892685709192754,-0.939026421702025,-16.0,-476.085856
1053,35.388574954850164,-0.45159571807470295,35.9262930928156,-1.0787880123287457,-16.0,-476.085856
1054,35.422182338473,0.0042790486460897266,35.422182338473,-0.36013099353171296,0.0,0.0
1055,35.455789722095844,0.5206232586985822,35.455789722095844,0.2884748559440527,0.0,0.0
1056,35.48939710571868,0.9460809343003097,35.48939710571868,0.9597512778857499,0.0,0.0
1057,35.523004489341524,1.1724419026682167,35.523004489341524,1.4094625566138062,0.0,0.0
1058,35.55661187296436,1.1776740648456598,35.55661187296436,1.474164126917875,0.0,0.0
1059,35.5902192565872,1.0234242323608753,35.5902192565872,1.1479567558580321,0.0,0.0
1060,35.62382664021004,0.8122721286471803,35.62382664021004,0.5794441685756734,0.0,0.0
1061,35.65743402383288,0.6305238685093084,35.65743402383288,-0.006269623132539021,0.0,0.0
1062,35.69104140745572,0.5077407889026251,35.69104140745572,-0.4168720884791022,0.0,0.0
1063,35.72464879107856,0.4122816693901853,35.72464879107856,-0.5771773085136187,0.0,0.0
1064,35.7582561747014,0.28055419388164426,35.7582561747014,-0.5488416357040233,0.0,0.0
1065,35.79186355832424,0.060253578152586626,35.79186355832424,-0.47975178263100127,0.0,0.0
1066,35.825470941947074,-0.25542131834046977,35.825470941947074,-0.5113557661038649,0.0,0.0
1067,35.85907832556992,-0.6166841105606801,35.85907832556992,-0.6916440205445044,0.0,0.0
1068,35.892685709192754,-0.9318406757347514,35.892685709192754,-0.939026421702025,0.0,0.0
1069,35.9262930928156,-1.101915522723168,35.9262930928156,-1.0787880123287457,0.0,0.0
1070,35.959900476438435,-1.0626425441022869,35.959900476438435,-0.9376944366548932,0.0,0.0
1071,35.99350786006128,-0.8159693340585622,35.99350786006128,-0.44925546062260246,0.0,0.0
1072,36.027115243684115,-0.43452785930629995,36.027115243684115,0.2892039158167587,0.0,0.0
1073,36.06072262730696,-0.03406704570159862,36.06072262730696,1.0448022722949388,0.0,0.0
1074,36.094330010929795,0.27405874126890795,36.094330010929795,1.5528443974116268,0.0,0.0
1075,36.12793739455263,0.42641293084328197,36.12793739455263,1.6414401981692495,0.0,0.0
1076,36.161544778175475,0.42494787914038157,36.161544778175475,1.3095235862045753,0.0,0.0
1077,36.19515216179831,0.3213724336322393,36.19515216179831,0.7184179439965903,0.0,0.0
1078,36.228759545421156,0.17994855464187365,36.228759545421156,0.10602103956877519,0.0,0.0
1079,36.26236692904399,0.04079694522069727,36.26236692904399,-0.3278834334354737,0.0,0.0
1080,36.295974312666836,-0.09671749174761539,36.295974312666836,-0.5068215331125278,0.0,0.0
1081,36.32958169628967,-0.2630083103413047,36.32958169628967,-0.4947806068497126,0.0,0.0
1082,36.36318907991251,-0.48689554926054174,36.36318907991251,-0.44218862590360847,0.0,0.0
1083,36.39679646353535,-0.7622438705005287,36.39679646353535,-0.49113280585855484,0.0,0.0
1084,36.43040384715819,-1.0333182991400067,36.43040384715819,-0.6883809764657156,0.0,0.0
1085,36.46401123078103,-1.2100431023504843,36.46401123078103,-0.9509527997524144,0.0,0.0
1086,36.49761861440387,-1.2073097451138608,36.49761861440387,-1.1043736722201463,0.0,0.0
1087,36.53122599802671,-0.9883540839469349,36.53122599802671,-0.9774921064284121,0.0,0.0
1088,36.56483338164955,-0.5890242996119601,36.56483338164955,-0.5058950092379993,0.0,0.0
1089,36.59844076527239,-0.10840455175145228,36.59844076527239,0.21356740199053675,0.0,0.0
1090,36.63204814889523,0.33206822406851094,36.63204814889523,0.9520841842007228,0.0,0.0
1091,36.665655532518066,0.641370883452085,36.665655532518066,1.451040529438261,0.0,0.0
1092,36.69926291614091,0.7956583291750946,36.69926291614091,1.5433842950406076,0.0,0.0
1093,36.732870299763746,0.8388649452568486,36.732870299763746,1.2288696631771896,0.0,0.0
1094,36.76647768338659,0.8474827489474853,36.76647768338659,0.664834265193026,0.0,0.0
1095,36.80008506700943,0.881131809048179,36.80008506700943,0.08159837319502534,0.0,0.0
1096,36.83369245063227,0.9488693933235296,36.83369245063227,-0.32980600009965777,0.0,0.0
1097,36.86729983425511,1.0100654246582679,36.86729983425511,-0.4997858370742679,0.0,0.0
1098,36.90090721787794,1.0060990604653326,36.90090721787794,-0.49396336460313056,0.0,0.0
1099,36.93451460150079,0.9022783573551227,36.93451460150079,-0.4564113993677564,0.0,0.0
1100,36.968121985123624,0.7173683991377974,36.968121985123624,-0.5148771361513653,0.0,0.0
1101,37.00172936874647,0.5258803356278412,37.00172936874647,-0.6985550301952158,0.0,0.0
1102,37.035336752369304,0.4293266387349846,37.035336752369304,-0.9127021233373964,0.0,0.0
1103,37.06894413599215,0.5063535998176574,37.06894413599215,-0.9861759142471763,0.0,0.0
1104,37.102551519614984,0.7650398673372031,37.102551519614984,-0.769702965734306,0.0,0.0
1105,37.13615890323783,1.1241517770701754,37.13615890323783,-0.23272145264592473,0.0,0.0
1106,37.169766286860664,1.4375490071373187,37.169766286860664,0.49715158070369314,0.0,0.0
1107,37.2033736704835,1.5530796436009358,37.2033736704835,1.1792833219934464,0.0,0.0
1108,37.236981054106344,1.3778329442085033,37.236981054106344,1.5694983908522044,0.0,0.0
1109,37.27058843772918,0.9168225928750906,37.27058843772918,1.5356230611580122,0.0,0.0
1110,37.304195821352025,0.2652628855099724,37.304195821352025,1.1170775860741382,0.0,0.0
1111,37.33780320497486,-0.4408217113917632,37.33780320497486,0.49892954670776624,0.0,0.0
1112,37.371410588597705,-1.088873823552058,37.371410588597705,-0.08198361695407927,0.0,0.0
1113,37.40501797222054,-1.6360343072698045,37.40501797222054,-0.44775984937892815,0.0,0.0
1114,37.43862535584338,-2.1162882342405065,37.43862535584338,-0.5523520775887291,0.0,0.0
1115,37.47223273946622,-2.6073850612014278,37.47223273946622,-0.48552665834490655,0.0,0.0
1116,37.50584012308906,-3.1720851444206666,37.50584012308906,-0.4113273295907912,0.0,0.0
1117,37.5394475067119,-3.7959250686183394,37.5394475067119,-0.47342157849990235,0.0,0.0
1118,37.57305489033474,-4.347613929033851,37.57305489033474,-0.7124969301258497,0.0,0.0
1119,37.60666227395758,-4.589669840826878,37.60666227395758,-1.0349766126912137,0.0,0.0
1120,37.64026965758042,-4.256565974367408,37.64026965758042,-1.2506509495000977,0.0,0.0
1121,37.67387704120326,-3.185180723751832,37.67387704120326,-1.1660256267814517,0.0,0.0
1122,37.7074844248261,-1.4383047930233654,37.7074844248261,-0.6911272369424688,0.0,0.0
1123,37.741091808448935,0.6581634261759072,37.741091808448935,0.09521450195945894,0.0,0.0
1124,37.77469919207178,2.609694272009722,37.77469919207178,0.9612048552020485,0.0,0.0
1125,37.808306575694616,3.948017780982691,37.808306575694616,1.617718316692782,0.0,0.0
1126,37.84191395931746,4.427640191328014,37.84191395931746,1.8475029524710271,0.0,0.0
1127,37.875521342940296,4.11735219369521,37.875521342940296,1.6012662967669875,0.0,0.0
1128,37.90912872656314,3.339763496782818,37.90912872656314,1.0118611030227702,0.0,0.0
1129,37.942736110185976,2.498515712245215,37.942736110185976,0.3225687159779845,0.0,0.0
1130,37.97634349380881,1.8905030529158549,37.97634349380881,-0.23034344163081302,0.0,0.0
1131,38.009950877431656,1.598029585052322,38.009950877431656,-0.5208144201641524,0.0,0.0
1132,38.04355826105449,1.5020471593075508,38.04355826105449,-0.5735344778615634,0.0,0.0
1133,38.077165644677336,1.389473887810431,38.077165644677336,-0.5268713873092323,0.0,0.0
1134,38.11077302830017,1.0854069268916546,38.11077302830017,-0.5408750050267336,0.0,0.0
1135,38.14438041192302,0.543522969683617,38.14438041192302,-0.6983618123771299,0.0,0.0
1136,38.17798779554585,-0.13759575997605294,38.17798779554585,-0.9500532012910368,0.0,0.0
1137,38.2115951791687,-0.76625080555384,38.2115951791687,-1.1340769453544153,0.0,0.0
1138,38.24520256279153,-1.1476633791939959,38.2115951791687,-1.1340769453544153,1.0,29.755366
1139,38.27880994641437,-1.1733185652856533,38.24520256279153,-1.063447900051152,1.0,29.755366
1140,38.31241733003721,-0.8722715937676155,38.27880994641438,-0.6380698874251569,1.0,29.755366
1141,38.34602471366005,-0.40054246613012695,38.31241733003721,0.08011502321834198,1.0,29.755366
1142,38.379632097282894,0.028840866174875534,38.34602471366006,0.8750944214926595,1.0,29.755366
1143,38.41323948090573,0.24233203912218454,38.379632097282894,1.469716759654294,1.0,29.755366
1144,38.446846864528574,0.1800364153085994,38.41323948090574,1.6560968394459805,1.0,29.755366
1145,38.48045424815141,-0.09004047489027592,38.446846864528574,1.3930248881307177,1.0,29.755366
1146,38.51406163177425,-0.4215802575268865,38.48045424815141,0.8185891707813601,1.0,29.755366
1147,38.54766901539709,-0.6723045097716531,38.514061631774254,0.17427023878129325,1.0,29.755366
1148,38.58127639901993,-0.7736948190273193,38.54766901539709,-0.3158081097927778,1.0,29.755366
1149,38.61488378264277,-0.7549700488930011,38.581276399019934,-0.5463449454992885,1.0,29.755366
1150,38.64849116626561,-0.7147278703524533,38.61488378264277,-0.5632308003215654,1.0,29.755366
1151,38.68209854988845,-0.7579613622181015,38.648491166265615,-0.5149477083833964,1.0,29.755366
1152,38.71570593351129,-0.9301651827861916,38.68209854988845,-0.5522442771876676,1.0,29.755366
1153,38.74931331713413,-1.1818928404937628,38.74931331713413,-0.9679848022939967,0.0,0.0
1154,38.78292070075697,-1.3846116061244582,38.78292070075697,-1.0842069985964593,0.0,0.0
1155,38.816528084379804,-1.3937303409928927,38.816528084379804,-0.9024689521971156,0.0,0.0
1156,38.85013546800265,-1.127772855859235,38.85013546800265,-0.3614095885786854,0.0,0.0
1157,38.883742851625485,-0.6197577229369396,38.85013546800265,-0.3614095885786854,1.0,29.755366
1158,38.91735023524833,-0.008956002812732943,38.88374285162549,0.42718332717198865,1.0,29.755366
1159,38.950957618871165,0.5251613119644718,38.91735023524833,1.2119472055927776,1.0,29.755366
1160,38.98456500249401,0.8497383859105834,38.95095761887117,1.7137748926884628,1.0,29.755366
1161,39.018172386116845,0.936552890244626,38.98456500249401,1.757365754100913,1.0,29.755366
1162,39.05177976973968,0.8608802629225911,39.018172386116845,1.3520132048024043,1.0,29.755366
1163,39.085387153362525,0.7473843419066167,39.05177976973969,0.6800922187525985,1.0,29.755366
1164,39.11899453698536,0.6978094509646208,39.085387153362525,0.002790257648824473,1.0,29.755366
1165,39.152601920608205,0.7397861463044815,39.11899453698537,-0.46492239738333047,1.0,29.755366
1166,39.18620930423104,0.8191827413953344,39.152601920608205,-0.6463941850210518,1.0,29.755366
1167,39.219816687853886,0.8346687866820048,39.18620930423105,-0.6199353912552689,1.0,29.755366
1168,39.25342407147672,0.6952682748716807,39.219816687853886,-0.5568256461100948,1.0,29.755366
1169,39.287031455099566,0.3741632242944129,39.25342407147673,-0.6150007332627982,1.0,29.755366
1170,39.3206388387224,-0.06581378011248355,39.287031455099566,-0.8426701112171731,1.0,29.755366
1171,39.35424622234524,-0.48877637191213014,39.3206388387224,-1.1413207373119152,1.0,29.755366
1172,39.38785360596808,-0.7404957675665185,39.354246222345246,-1.3098831718223356,1.0,29.755366
1173,39.42146098959092,-0.717937854828329,39.38785360596808,-1.1517005169976395,1.0,29.755366
1174,39.45506837321376,-0.41956344855248434,39.421460989590926,-0.5909699666063883,1.0,29.755366
1175,39.4886757568366,0.05057636706667693,39.45506837321376,0.26494011925544353,1.0,29.755366
1176,39.52228314045944,0.5278056833520294,39.48867575683661,1.1560994221216763,1.0,29.755366
1177,39.55589052408228,0.8569776161981705,39.52228314045944,1.7822777520050996,1.0,29.755366
1178,39.589497907705116,0.952549704017553,39.55589052408228,1.9390551504261286,1.0,29.755366
1179,39.62310529132796,0.8231451835241128,39.58949790770512,1.606684427214584,1.0,29.755366
1180,39.656712674950796,0.5557797416542964,39.62310529132796,0.948678284017932,1.0,29.755366
1181,39.69032005857364,0.27145047216043305,39.6567126749508,0.22702227452132814,1.0,29.755366
1182,39.72392744219648,0.07054890011999518,39.69032005857364,-0.31849186249499184,1.0,29.755366
1183,39.75753482581932,-0.012100065668259925,39.723927442196484,-0.5683168067855704,1.0,29.755366
1184,39.79114220944216,-0.023298974355502735,39.75753482581932,-0.5580280073467287,1.0,29.755366
1185,39.824749593065,-0.06631792207845873,39.791142209442164,-0.44154728757862866,1.0,29.755366
1186,39.85835697668784,-0.24076170340854472,39.824749593065,-0.4041637872142953,1.0,29.755366
1187,39.89196436031067,-0.5766590600636983,39.85835697668784,-0.564692014185359,1.0,29.755366
1188,39.92557174393352,-1.0014130144818814,39.89196436031068,-0.9089040601078919,1.0,29.755366
1189,39.959179127556354,-1.3632043369952878,39.92557174393352,-1.2847790752492982,1.0,29.755366
1190,39.9927865111792,-1.502506025648087,39.95917912755636,-1.4664628099961559,1.0,29.755366
1191,40.026393894802034,-1.3342400860856953,39.9927865111792,-1.2634800859625526,1.0,29.755366
1192,40.06000127842488,-0.8945997121238966,39.9927865111792,-1.2634800859625526,2.0,59.510732
1193,40.093608662047714,-0.3252651957343246,40.026393894802034,-0.6259626021980539,2.0,59.510732
1194,40.12721604567055,0.19552477525608378,40.093608662047714,1.2602816796457812,1.0,29.755366
1195,40.160823429293394,0.5340050522689939,40.12721604567056,1.9198254021813517,1.0,29.755366
1196,40.19443081291623,0.6487996587418732,40.160823429293394,2.0858334115546775,1.0,29.755366
1197,40.228038196539075,0.5857884189600057,40.160823429293394,2.0858334115546775,2.0,59.510732
1198,40.26164558016191,0.4344366704064304,40.19443081291623,1.7455093557917927,2.0,59.510732
1199,40.295252963784755,0.2787641252227989,40.228038196539075,1.068238770724932,2.0,59.510732
1200,40.32886034740759,0.1691972444941364,40.26164558016191,0.3193131109497728,2.0,59.510732
1201,40.362467731030435,0.12011601926682794,40.295252963784755,-0.25771873630252384,2.0,59.510732
1202,40.39607511465327,0.1214108469557097,40.32886034740759,-0.5340097159125334,2.0,59.510732
1203,40.42968249827611,0.1504056385288183,40.36246773103043,-0.5282873743788109,2.0,59.510732
1204,40.46328988189895,0.1785113110168063,40.39607511465327,-0.3763962142892559,2.0,59.510732
1205,40.49689726552179,0.1757431695718414,40.42968249827611,-0.25951663303723593,2.0,59.510732
1206,40.53050464914463,0.11959648239533564,40.46328988189895,-0.3225859406884679,2.0,59.510732
1207,40.56411203276747,0.010627325650647914,40.49689726552179,-0.610907609637711,2.0,59.510732
1208,40.59771941639031,-0.11250459564340413,40.53050464914463,-1.0442973480704483,2.0,59.510732
1209,40.63132680001315,-0.17358762652313295,40.56411203276747,-1.4389855904567361,2.0,59.510732
1210,40.664934183635985,-0.08626522291780098,40.597719416390305,-1.575877550865246,2.0,59.510732
1211,40.69854156725883,0.19845204963200097,40.63132680001315,-1.2964220452223931,2.0,59.510732
1212,40.732148950881665,0.6507028242999285,40.664934183635985,-0.5883192288058101,2.0,59.510732
1213,40.76575633450451,1.1542556126537875,40.69854156725883,0.38373923888557193,2.0,59.510732
1214,40.799363718127346,1.541108732240767,40.732148950881665,1.3286954020201145,2.0,59.510732
1215,40.83297110175019,1.6515687184148407,40.76575633450451,1.946119878511331,2.0,59.510732
1216,40.866578485373026,1.39263378559814,40.799363718127346,2.0541614891420306,2.0,59.510732
1217,40.90018586899587,0.7743781092061509,40.83297110175019,1.6630701922905218,2.0,59.510732
1218,40.933793252618706,-0.08389981638041275,40.866578485373026,0.958797565268847,2.0,59.510732
1219,40.96740063624154,-0.9797779441509475,40.90018586899586,0.21083913019155398,2.0,59.510732
1220,41.001008019864386,-1.6853234661935572,40.933793252618706,-0.3446556616976124,2.0,59.510732
1221,41.03461540348722,-2.0258004274910157,40.96740063624154,-0.5911386948068262,2.0,59.510732
1222,41.06822278711007,-1.9511369279876865,41.001008019864386,-0.5561047823594848,2.0,59.510732
1223,41.1018301707329,-1.5614190298667636,41.03461540348722,-0.37578436883736827,2.0,59.510732
1224,41.13543755435575,-1.0628404476018711,41.06822278711007,-0.2253318915048825,2.0,59.510732
1225,41.16904493797858,-0.6686705565900404,41.1018301707329,-0.2451060729202465,2.0,59.510732
1226,41.20265232160142,-0.4956762150578864,41.13543755435574,-0.48596204030053225,2.0,59.510732
1227,41.23625970522426,-0.5135670643378809,41.16904493797858,-0.8861594592137932,2.0,59.510732
1228,41.2698670888471,-0.5760600129858469,41.20265232160142,-1.2859150775214925,2.0,59.510732
1229,41.303474472469944,-0.5136710633341699,41.23625970522426,-1.4804022741315108,2.0,59.510732
1230,41.33708185609278,-0.2315855360186667,41.2698670888471,-1.30131917880051,2.0,59.510732
1231,41.370689239715624,0.24368474940544602,41.303474472469944,-0.7000373103969267,2.0,59.510732
1232,41.40429662333846,0.7885856901699709,41.33708185609278,0.20738053124765843,2.0,59.510732
1233,41.437904006961304,1.2526532583655452,41.370689239715624,1.1655059369954859,2.0,59.510732
1234,41.47151139058414,1.527818207032168,41.40429662333846,1.8750205930463686,2.0,59.510732
1235,41.50511877420698,1.5817337299614722,41.4379040069613,2.1172553028691166,2.0,59.510732
1236,41.53872615782982,1.449369079767785,41.47151139058414,1.8456553029710616,2.0,59.510732
1237,41.57233354145266,1.2009095302409707,41.50511877420698,1.1980402626166253,2.0,59.510732
1238,41.6059409250755,0.9091525141954586,41.53872615782982,0.42696904301581945,2.0,59.510732
1239,41.63954830869834,0.6294339847466531,41.57233354145266,-0.21256654654693372,2.0,59.510732
1240,41.67315569232118,0.3918100375988804,41.6059409250755,-0.563218226351121,2.0,59.510732
1241,41.70676307594402,0.19898832760931012,41.63954830869834,-0.6125116137732007,2.0,59.510732
1242,41.740370459566854,0.027054785885574896,41.673155692321174,-0.4763181999635696,2.0,59.510732
1243,41.7739778431897,-0.16664301719427552,41.70676307594402,-0.3343716351009529,2.0,59.510732
1244,41.807585226812535,-0.423293428009805,41.740370459566854,-0.34710383349283486,2.0,59.510732
1245,41.84119261043538,-0.7543328742078549,41.7739778431897,-0.5837963518872566,2.0,59.510732
1246,41.874799994058215,-1.1206800921642577,41.807585226812535,-0.9859076476002598,2.0,59.510732
1247,41.90840737768106,-1.436535492015711,41.84119261043538,-1.3803891765457335,2.0,59.510732
1248,41.942014761303895,-1.601975359316658,41.874799994058215,-1.5445894307965597,2.0,59.510732
1249,41.97562214492674,-1.5490613129661468,41.90840737768106,-1.3046895295380654,2.0,59.510732
1250,42.009229528549575,-1.2747823650221592,41.942014761303895,-0.6282633754601608,2.0,59.510732
1251,42.04283691217241,-0.8411763118020706,41.97562214492673,0.33696801877044535,2.0,59.510732
1252,42.076444295795255,-0.34430543484873055,42.009229528549575,1.3074812047434863,2.0,59.510732
1253,42.11005167941809,0.12700756017431783,42.04283691217241,1.9779139856838988,2.0,59.510732
1254,42.143659063040936,0.5190365265626203,42.076444295795255,2.1499014117458812,2.0,59.510732
1255,42.17726644666377,0.8170773002006018,42.11005167941809,1.8109690509316627,2.0,59.510732
1256,42.210873830286616,1.0308641308817967,42.143659063040936,1.1272039113817944,2.0,59.510732
1257,42.24448121390945,1.174457972237081,42.17726644666377,0.36004540197145707,2.0,59.510732
1258,42.27808859753229,1.2517190355426213,42.21087383028661,-0.2471282109471148,2.0,59.510732
1259,42.31169598115513,1.2523797426127083,42.24448121390945,-0.5598942873892898,2.0,59.510732
1260,42.34530336477797,1.1577277324668318,42.27808859753229,-0.587286780750941,2.0,59.510732
1261,42.37891074840081,0.9507633002383296,42.31169598115513,-0.4555031110419877,2.0,59.510732
1262,42.41251813202365,0.6251757804027714,42.34530336477797,-0.3401584264622427,2.0,59.510732
1263,42.44612551564649,0.19182162336055697,42.37891074840081,-0.38648593683478066,2.0,59.510732
1264,42.47973289926933,-0.3137244255087298,42.41251813202365,-0.6452418563369717,2.0,59.510732
1265,42.51334028289217,-0.8218109592875192,42.44612551564649,-1.0449516553597007,2.0,59.510732
