frame_idx,t_rppg,rppg_n,t_gt_pair,ppg_n_pair,lag_samples,lag_frames
0,57.01146957894005,-0.41846173350149873,57.01146957894005,0.10145492169406455,0.0,0.0
1,57.04526416671654,-0.653548236810792,57.04526416671654,-0.06338035609692085,0.0,0.0
2,57.07905875449303,-0.9590209518969747,57.07905875449303,-0.21692637606428808,0.0,0.0
3,57.112853342269524,-1.3234856588385417,57.112853342269524,-0.4524474024580441,0.0,0.0
4,57.146647930046015,-1.6193300310900842,57.146647930046015,-0.763943278695998,0.0,0.0
5,57.180442517822506,-1.6736164986763573,57.180442517822506,-1.0288928171814948,0.0,0.0
6,57.214237105599,-1.3712477684153153,57.214237105599,-1.0725619282589376,0.0,0.0
7,57.24803169337549,-0.7262109089082277,57.24803169337549,-0.7773061669649742,0.0,0.0
8,57.28182628115198,0.11610988127175641,57.28182628115198,-0.17054497103036537,0.0,0.0
9,57.31562086892847,0.9361042814824535,57.31562086892847,0.5656942941412797,0.0,0.0
10,57.34941545670496,1.5188985812750173,57.34941545670496,1.175063781103783,0.0,0.0
11,57.38321004448145,1.7209939495240716,57.38321004448145,1.4526534156569642,0.0,0.0
12,57.417004632257935,1.5086489499982858,57.417004632257935,1.3423525051396479,0.0,0.0
13,57.450799220034426,0.962956315115844,57.450799220034426,0.9495262315005838,0.0,0.0
14,57.48459380781092,0.24878376114234574,57.48459380781092,0.4658922098062048,0.0,0.0
15,57.51838839558741,-0.44724693072702604,57.51838839558741,0.056557492192750976,0.0,0.0
16,57.5521829833639,-0.9859722024624307,57.5521829833639,-0.22146767640846096,0.0,0.0
17,57.58597757114039,-1.3157281848783202,57.58597757114039,-0.4236829915620076,0.0,0.0
18,57.61977215891688,-1.4594451703849742,57.61977215891688,-0.6490609305867406,0.0,0.0
19,57.65356674669337,-1.4596368464394907,57.65356674669337,-0.9454373710271391,0.0,0.0
20,57.68736133446986,-1.324258506519893,57.68736133446986,-1.2515890679066133,0.0,0.0
21,57.72115592224635,-1.0197030719369102,57.72115592224635,-1.4156389278607193,0.0,0.0
22,57.754950510022844,-0.5212003444608044,57.754950510022844,-1.2826405511953494,0.0,0.0
23,57.788745097799335,0.12284139686325245,57.788745097799335,-0.7995623646936769,0.0,0.0
24,57.822539685575826,0.77746617521656,57.822539685575826,-0.07073096215224109,0.0,0.0
25,57.85633427335232,1.282295994096059,57.85633427335232,0.676312924355358,0.0,0.0
26,57.89012886112881,1.5408672373771732,57.89012886112881,1.199188385143756,0.0,0.0
27,57.9239234489053,1.5641827863701039,57.9239234489053,1.3594678641157985,0.0,0.0
28,57.95771803668179,1.4364080880900518,57.95771803668179,1.180671413098582,0.0,0.0
29,57.99151262445828,1.2374117284608765,57.99151262445828,0.81380152490732,0.0,0.0
30,58.02530721223477,0.9857990017396681,58.02530721223477,0.4373646006284639,0.0,0.0
31,58.05910180001126,0.6413388242531599,58.05910180001126,0.1567978788930456,0.0,0.0
32,58.092896387787754,0.159231218682451,58.092896387787754,-0.03661646660125126,0.0,0.0
33,58.126690975564244,-0.44406559969911713,58.126690975564244,-0.22768425774949266,0.0,0.0
34,58.160485563340735,-1.059214878928677,58.160485563340735,-0.4895697182041328,0.0,0.0
35,58.194280151117226,-1.5123939602754015,58.194280151117226,-0.8054587060298036,0.0,0.0
36,58.22807473889372,-1.6440688976570645,58.22807473889372,-1.0528678114402077,0.0,0.0
37,58.26186932667021,-1.3952942666699881,58.26186932667021,-1.0657501252075163,0.0,0.0
38,58.2956639144467,-0.8475819682323459,58.2956639144467,-0.7399605626421232,0.0,0.0
39,58.32945850222319,-0.18595562300015753,58.32945850222319,-0.11621218148751318,0.0,0.0
40,58.36325308999968,0.3944492535406927,58.36325308999968,0.6162950569658843,0.0,0.0
41,58.39704767777617,0.7758314610708466,58.39704767777617,1.2045838822659152,0.0,0.0
42,58.43084226555266,0.9437159710589034,58.43084226555266,1.4569732238142215,0.0,0.0
43,58.464636853329154,0.9491914555816214,58.464636853329154,1.3335988850993417,0.0,0.0
44,58.498431441105645,0.8526513533391376,58.498431441105645,0.9498050741036491,0.0,0.0
45,58.532226028882135,0.6922070688672245,58.532226028882135,0.4954364147664291,0.0,0.0
46,58.566020616658626,0.48239465064636894,58.566020616658626,0.12377930180157445,0.0,0.0
47,58.59981520443512,0.22456002397187808,58.59981520443512,-0.12195727752326566,0.0,0.0
48,58.63360979221161,-0.08145729377593099,58.63360979221161,-0.3044051724276228,0.0,0.0
49,58.6674043799881,-0.421370939823164,58.6674043799881,-0.5190834917841186,0.0,0.0
50,58.70119896776459,-0.7505262451162864,58.70119896776459,-0.802752592190632,0.0,0.0
51,58.73499355554108,-0.9961286988357496,58.73499355554108,-1.0834655320160327,0.0,0.0
52,58.76878814331757,-1.0872268598650559,58.76878814331757,-1.2074039907663445,0.0,0.0
53,58.80258273109406,-0.9939690257522661,58.80258273109406,-1.0303204913091895,0.0,0.0
54,58.836377318870554,-0.743700673101885,58.836377318870554,-0.5189240688881738,0.0,0.0
55,58.870171906647045,-0.4012842108293413,58.870171906647045,0.2032467557933735,0.0,0.0
56,58.903966494423535,-0.03402924269465085,58.903966494423535,0.8998826495345785,0.0,0.0
57,58.937761082200026,0.30804820023579615,58.937761082200026,1.3345222831041081,0.0,0.0
58,58.97155566997652,0.5877726163025119,58.97155566997652,1.3859649897192374,0.0,0.0
59,59.00535025775301,0.7704722723081283,59.00535025775301,1.0982604469870159,0.0,0.0
60,59.0391448455295,0.8281136851947665,59.0391448455295,0.6385389748953366,0.0,0.0
61,59.07293943330599,0.7573393908421141,59.07293943330599,0.19299022774612262,0.0,0.0
62,59.10673402108248,0.5936530779250286,59.10673402108248,-0.13357298898383313,0.0,0.0
63,59.14052860885897,0.4054372983870586,59.14052860885897,-0.3560128787907583,0.0,0.0
64,59.17432319663546,0.26508390510534435,59.17432319663546,-0.5673419231193968,0.0,0.0
65,59.208117784411954,0.21001130459836453,59.208117784411954,-0.8479528709003685,0.0,0.0
66,59.241912372188445,0.21692071952795858,59.241912372188445,-1.1844914940724656,0.0,0.0
67,59.275706959964936,0.2112366644266882,59.275706959964936,-1.4512402644542415,0.0,0.0
68,59.30950154774143,0.11587191422138167,59.30950154774143,-1.470233521114882,0.0,0.0
69,59.34329613551792,-0.08528837283960229,59.34329613551792,-1.1184788324585522,0.0,0.0
70,59.37709072329441,-0.314528311085058,59.37709072329441,-0.41864183904005137,0.0,0.0
71,59.4108853110709,-0.43324674583164163,59.4108853110709,0.4454072524663197,0.0,0.0
72,59.44467989884739,-0.33168847847343313,59.44467989884739,1.2039719299993419,0.0,0.0
73,59.47847448662388,-0.017185173770819625,59.47847448662388,1.6278857219712306,0.0,0.0
74,59.51226907440037,0.3686293217393134,59.51226907440037,1.6336247317309354,0.0,0.0
75,59.54606366217686,0.6258579111193202,59.54606366217686,1.3081207147157965,0.0,0.0
76,59.579858249953354,0.6134377328290894,59.54606366217686,1.3081207147157965,1.0,29.59053699999999
77,59.613652837729845,0.3213577062712766,59.579858249953354,0.8436218644799452,1.0,29.59053699999999
78,59.647447425506336,-0.14600329897348385,59.613652837729845,0.42554591052111695,1.0,29.59053699999999
79,59.68124201328283,-0.6445551895145342,59.647447425506336,0.1398079722764857,1.0,29.59053699999999
80,59.71503660105932,-1.0576519818687742,59.68124201328283,-0.0501609041948435,1.0,29.59053699999999
81,59.74883118883581,-1.318385969965015,59.71503660105932,-0.2492393003904298,1.0,29.59053699999999
82,59.7826257766123,-1.3982454635632118,59.74883118883581,-0.5358035913704241,1.0,29.59053699999999
83,59.81642036438879,-1.291642982804947,59.7826257766123,-0.8852757924499317,1.0,29.59053699999999
84,59.85021495216528,-1.010013294469412,59.81642036438879,-1.1610156280732395,1.0,29.59053699999999
85,59.88400953994177,-0.5818597951212153,59.85021495216528,-1.1833779468618395,1.0,29.59053699999999
86,59.91780412771826,-0.053961310000254,59.88400953994177,-0.8403635795985926,1.0,29.59053699999999
87,59.951598715494754,0.5074710083689538,59.91780412771826,-0.1736734509778147,1.0,29.59053699999999
88,59.985393303271245,1.0194187359633078,59.951598715494754,0.6167860344415893,1.0,29.59053699999999
89,60.019187891047736,1.3955454563910075,59.985393303271245,1.2597813117784744,1.0,29.59053699999999
90,60.05298247882423,1.5728315539838265,60.019187891047736,1.5437187981904381,1.0,29.59053699999999
91,60.08677706660072,1.5403203462754729,60.05298247882423,1.4155764654574512,1.0,29.59053699999999
92,60.12057165437721,1.3474122816317726,60.08677706660072,0.9915513509386463,1.0,29.59053699999999
93,60.1543662421537,1.075071816957503,60.12057165437721,0.4779812968031589,1.0,29.59053699999999
94,60.18816082993019,0.7815986986650064,60.1543662421537,0.053850868929592996,1.0,29.59053699999999
95,60.22195541770668,0.4637540621927027,60.18816082993019,-0.2156204006457583,1.0,29.59053699999999
96,60.25575000548317,0.07084784639980232,60.22195541770668,-0.38844833299151627,1.0,29.59053699999999
97,60.28954459325966,-0.43111683782777777,60.25575000548317,-0.5798497298213577,1.0,29.59053699999999
98,60.323339181036154,-0.9925682546884752,60.28954459325966,-0.8645756973170662,1.0,29.59053699999999
99,60.357133768812645,-1.468141365535263,60.323339181036154,-1.2072284271735685,1.0,29.59053699999999
100,60.390928356589136,-1.6806315965331249,60.357133768812645,-1.4632677111488448,1.0,29.59053699999999
101,60.42472294436563,-1.5241564808208894,60.390928356589136,-1.4535870467005014,1.0,29.59053699999999
102,60.45851753214212,-1.0353105404144372,60.42472294436563,-1.0727924023950866,1.0,29.59053699999999
103,60.49231211991861,-0.38294492853252615,60.45851753214212,-0.3683799772253262,1.0,29.59053699999999
104,60.5261067076951,0.2146582970210204,60.49231211991861,0.4596758965830607,1.0,29.59053699999999
105,60.55990129547159,0.5923112226741484,60.5261067076951,1.1448587996096602,1.0,29.59053699999999
106,60.59369588324808,0.7039350017144134,60.55990129547159,1.4796475245767895,1.0,29.59053699999999
107,60.62749047102457,0.6228809116802964,60.59369588324808,1.4093887336011213,1.0,29.59053699999999
108,60.66128505880106,0.4829430468965742,60.62749047102457,1.042529784619672,1.0,29.59053699999999
109,60.69507964657755,0.39488285917940313,60.661285058801056,0.5763865137559182,1.0,29.59053699999999
110,60.72887423435404,0.3842532546984461,60.69507964657755,0.1863392015859785,1.0,29.59053699999999
111,60.76266882213053,0.384320064861679,60.72887423435404,-0.05708692546636644,1.0,29.59053699999999
112,60.79646340990702,0.287746511461604,60.76266882213053,-0.20035671742469413,1.0,29.59053699999999
113,60.83025799768351,0.028442347250999242,60.79646340990702,-0.34827287842438337,1.0,29.59053699999999
114,60.86405258546,-0.35297880407688964,60.83025799768351,-0.5736656979918762,1.0,29.59053699999999
115,60.89784717323649,-0.702532035496576,60.86405258546,-0.8505286794461846,1.0,29.59053699999999
116,60.93164176101298,-0.820481677247577,60.89784717323649,-1.0518041341566686,1.0,29.59053699999999
117,60.965436348789474,-0.5764735751200396,60.93164176101298,-1.0163683871705051,1.0,29.59053699999999
118,60.999230936565965,-0.007887084324100046,60.93164176101298,-1.0163683871705051,2.0,59.18107399999998
119,61.033025524342456,0.6677879081296361,60.965436348789474,-0.6488142085066053,2.0,59.18107399999998
120,61.06682011211895,1.151894719522804,60.999230936565965,0.006697063182232104,2.0,59.18107399999998
121,61.10061469989544,1.2270219033519636,61.033025524342456,0.7656008997886005,2.0,59.18107399999998
122,61.13440928767193,0.8852554502123721,61.06682011211895,1.3806217219615753,2.0,59.18107399999998
123,61.16820387544842,0.34034601474691806,61.10061469989544,1.6564739526033496,2.0,59.18107399999998
124,61.20199846322491,-0.08717804839100479,61.13440928767193,1.5377459896327785,2.0,59.18107399999998
125,61.2357930510014,-0.14814176174997318,61.16820387544842,1.1230000062139032,2.0,59.18107399999998
126,61.26958763877789,0.19011884727229647,61.20199846322491,0.6020644319655997,2.0,59.18107399999998
127,61.30338222655438,0.7077792124308581,61.2357930510014,0.15552233485475422,2.0,59.18107399999998
128,61.337176814330874,1.028985889903622,61.26958763877789,-0.12871583236221684,2.0,59.18107399999998
129,61.370971402107365,0.8124108087324114,61.30338222655438,-0.28171676866416884,2.0,59.18107399999998
130,61.404765989883856,-0.05257885413638379,61.337176814330874,-0.41509667708354064,2.0,59.18107399999998
131,61.43856057766035,-1.348785423603514,61.370971402107365,-0.641715733809802,2.0,59.18107399999998
132,61.47235516543684,-2.6005720964665757,61.404765989883856,-0.9967394766220306,2.0,59.18107399999998
133,61.50614975321333,-3.2912027916183537,61.43856057766035,-1.399156648840682,2.0,59.18107399999998
134,61.53994434098982,-3.1169402609162646,61.47235516543684,-1.6759826836500844,2.0,59.18107399999998
135,61.57373892876631,-2.132850331699016,61.50614975321333,-1.6426180937217663,2.0,59.18107399999998
136,61.6075335165428,-0.7071490938943719,61.53994434098982,-1.2032007602665995,2.0,59.18107399999998
137,61.64132810431929,0.6779209364732034,61.57373892876631,-0.41862307078792194,2.0,59.18107399999998
138,61.67512269209578,1.649568202324595,61.6075335165428,0.4996697280931585,2.0,59.18107399999998
139,61.708917279872274,2.0678672793892345,61.64132810431929,1.274310834599814,2.0,59.18107399999998
140,61.742711867648765,2.010727295975982,61.67512269209578,1.6837570926059677,2.0,59.18107399999998
141,61.776506455425256,1.6725166179515674,61.708917279872274,1.6563454705116294,2.0,59.18107399999998
142,61.81030104320175,1.2572540090505582,61.742711867648765,1.2878032774320607,2.0,59.18107399999998
143,61.84409563097824,0.913021078270991,61.776506455425256,0.7781187877231337,2.0,59.18107399999998
144,61.87789021875473,0.706168949269022,61.81030104320175,0.3271697039238899,2.0,59.18107399999998
145,61.91168480653122,0.6165119832919271,61.84409563097824,0.04511829949493408,2.0,59.18107399999998
146,61.94547939430771,0.5493383727710711,61.87789021875473,-0.08122539120112644,2.0,59.18107399999998
147,61.9792739820842,0.3745851022217139,61.91168480653122,-0.15710662098193454,2.0,59.18107399999998
148,62.01306856986069,-0.006557003404573397,61.94547939430771,-0.30528816506673345,2.0,59.18107399999998
149,62.04686315763718,-0.5933744269231219,62.79034408871998,1.0183854471031741,-22.0,-650.9918139999997
150,62.080657745413674,-1.2560637295316743,62.824138676496474,1.557386697368306,-22.0,-650.9918139999997
151,62.114452333190165,-1.7718079638500592,62.857933264272965,1.6701178284184917,-22.0,-650.9918139999997
152,62.148246920966656,-1.9184224523808189,62.891727852049456,1.4135632218633194,-22.0,-650.9918139999997
153,62.18204150874315,-1.582061202543956,62.92552243982595,0.9641114155953815,-22.0,-650.9918139999997
154,62.21583609651964,-0.8221434840663807,62.95931702760244,0.5101618781399996,-22.0,-650.9918139999997
155,62.24963068429613,0.14308842417285939,62.99311161537893,0.15620746989873788,-22.0,-650.9918139999997
156,62.28342527207262,1.0240690304974798,63.02690620315542,-0.10782073508972684,-22.0,-650.9918139999997
157,62.31721985984911,1.5770285223621407,63.06070079093191,-0.36077687785234086,-22.0,-650.9918139999997
158,62.3510144476256,1.6965401396535515,63.0944953787084,-0.663201253482494,-22.0,-650.9918139999997
159,62.38480903540209,1.4438384840649383,63.12828996648489,-0.9874321395203296,-22.0,-650.9918139999997
160,62.41860362317858,1.0001718184006514,63.162084554261384,-1.211605612558764,-22.0,-650.9918139999997
161,62.452398210955074,0.568244143817468,63.195879142037874,-1.1841840164790085,-22.0,-650.9918139999997
162,62.486192798731565,0.27176932936353887,63.229673729814365,-0.8206937542604761,-22.0,-650.9918139999997
163,62.519987386508056,0.10705020043683522,63.263468317590856,-0.17214551416606602,-22.0,-650.9918139999997
164,62.55378197428455,-0.02779598501361897,62.519987386508056,-0.5481713869114997,1.0,29.59053699999999
165,62.58757656206104,-0.24732960451667949,62.55378197428455,-0.8819752612540334,1.0,29.59053699999999
166,62.62137114983753,-0.592388032457957,62.58757656206104,-1.3011192360061794,1.0,29.59053699999999
167,62.65516573761402,-0.9960626566054275,63.973154660897166,2.0444432170855515,-39.0,-1154.0309429999995
168,62.68896032539051,-1.3205370421998983,64.00694924867365,1.6441990867221032,-39.0,-1154.0309429999995
169,62.722754913167,-1.43828806578287,64.04074383645015,1.0436568449718309,-39.0,-1154.0309429999995
170,62.75654950094349,-1.3028465710606945,62.722754913167,-0.7414250761675689,1.0,29.59053699999999
171,62.79034408871998,-0.9630587431415544,62.75654950094349,0.16866575522686592,1.0,29.59053699999999
172,62.824138676496474,-0.5179849172116594,62.79034408871998,1.0183854471031741,1.0,29.59053699999999
173,62.857933264272965,-0.0539076468484527,62.824138676496474,1.557386697368306,1.0,29.59053699999999
174,62.891727852049456,0.38779772584117755,62.857933264272965,1.6701178284184917,1.0,29.59053699999999
175,62.92552243982595,0.7965385569872674,64.24351136310909,-1.1267408315402232,-39.0,-1154.0309429999995
176,62.95931702760244,1.15613493788265,64.581457240874,1.4296358167511607,-48.0,-1420.3457759999997
177,62.99311161537893,1.4213190050445792,64.61525182865049,0.8662501562130076,-48.0,-1420.3457759999997
178,63.02690620315542,1.523685076390235,64.64904641642698,0.3992337594483076,-48.0,-1420.3457759999997
179,63.06070079093191,1.399448030008667,64.68284100420347,0.10478973176188786,-48.0,-1420.3457759999997
180,63.0944953787084,1.0209884522674577,64.71663559197997,-0.07944696525292222,-48.0,-1420.3457759999997
181,63.12828996648489,0.41798335624001504,64.75043017975645,-0.2857832054176792,-48.0,-1420.3457759999997
182,63.162084554261384,-0.3174186876917523,64.78422476753295,-0.611046854746618,-48.0,-1420.3457759999997
183,63.195879142037874,-1.0401581015547154,64.81801935530943,-1.0345666206709443,-48.0,-1420.3457759999997
184,63.229673729814365,-1.5749076310247268,64.85181394308593,-1.4070571177627633,-48.0,-1420.3457759999997
185,63.263468317590856,-1.7562003725032667,64.88560853086241,-1.5210739277073904,-48.0,-1420.3457759999997
186,63.29726290536735,-1.4902333823801976,64.91940311863891,-1.2286609131281006,-48.0,-1420.3457759999997
187,63.33105749314384,-0.8213287379654205,64.9531977064154,-0.541073931062669,-48.0,-1420.3457759999997
188,63.36485208092033,0.043170958748514114,64.9869922941919,0.35072042843732343,-48.0,-1420.3457759999997
189,63.39864666869682,0.7932819070994749,65.02078688196838,0.35072042843732343,-48.0,-1420.3457759999997
190,63.43244125647331,1.1533915129177517,65.05458146974487,0.35072042843732343,-48.0,-1420.3457759999997
191,63.4662358442498,1.0219425321157396,65.08837605752136,0.35072042843732343,-48.0,-1420.3457759999997
192,63.50003043202629,0.5217002830102648,65.12217064529786,0.35072042843732343,-48.0,-1420.3457759999997
193,63.533825019802784,-0.07767411836723057,65.15596523307434,0.35072042843732343,-48.0,-1420.3457759999997
194,63.567619607579275,-0.5138343934157857,65.18975982085084,0.35072042843732343,-48.0,-1420.3457759999997
195,63.601414195355765,-0.6594392651901603,65.22355440862732,0.35072042843732343,-48.0,-1420.3457759999997
196,63.635208783132256,-0.5480351149623619,65.25734899640382,0.35072042843732343,-48.0,-1420.3457759999997
197,63.66900337090875,-0.3024577265731046,65.2911435841803,0.35072042843732343,-48.0,-1420.3457759999997
198,63.70279795868524,-0.033336187082388224,65.3249381719568,0.35072042843732343,-48.0,-1420.3457759999997
199,63.73659254646173,0.21875457403608067,65.35873275973329,0.35072042843732343,-48.0,-1420.3457759999997
200,63.77038713423822,0.4686587882588553,65.39252734750978,0.35072042843732343,-48.0,-1420.3457759999997
201,63.80418172201471,0.7295283011551803,65.42632193528627,0.35072042843732343,-48.0,-1420.3457759999997
202,63.8379763097912,0.9711187661758641,65.46011652306277,0.35072042843732343,-48.0,-1420.3457759999997
203,63.87177089756769,1.126987522061793,65.49391111083925,0.35072042843732343,-48.0,-1420.3457759999997
204,63.905565485344184,1.135210547669811,65.52770569861575,0.35072042843732343,-48.0,-1420.3457759999997
205,63.939360073120675,0.9728374614646943,65.56150028639223,0.35072042843732343,-48.0,-1420.3457759999997
206,63.97315466089716,0.6602137551138624,65.59529487416872,0.35072042843732343,-48.0,-1420.3457759999997
207,64.00694924867365,0.2424989060490424,65.62908946194521,0.35072042843732343,-48.0,-1420.3457759999997
208,64.04074383645015,-0.228321099405486,65.66288404972171,0.35072042843732343,-48.0,-1420.3457759999997
209,64.07453842422663,-0.6974577191264194,65.6966786374982,0.35072042843732343,-48.0,-1420.3457759999997
210,64.10833301200313,-1.1053219394962612,65.7304732252747,0.35072042843732343,-48.0,-1420.3457759999997
211,64.14212759977961,-1.3938632083321985,65.76426781305118,0.35072042843732343,-48.0,-1420.3457759999997
212,64.17592218755611,-1.5200128377038957,65.79806240082767,0.35072042843732343,-48.0,-1420.3457759999997
213,64.2097167753326,-1.4622609653473793,65.83185698860416,0.35072042843732343,-48.0,-1420.3457759999997
214,64.24351136310909,-1.2168441056537793,65.86565157638066,0.35072042843732343,-48.0,-1420.3457759999997
215,64.27730595088558,-0.7975601699897963,65.89944616415714,0.35072042843732343,-48.0,-1420.3457759999997
216,64.31110053866207,-0.24971425122568824,65.93324075193364,0.35072042843732343,-48.0,-1420.3457759999997
217,64.34489512643856,0.33473866078477066,65.96703533971012,0.35072042843732343,-48.0,-1420.3457759999997
218,64.37868971421506,0.8280176014289768,66.00082992748662,0.35072042843732343,-48.0,-1420.3457759999997
219,64.41248430199154,1.114136256952799,66.0346245152631,0.35072042843732343,-48.0,-1420.3457759999997
220,64.44627888976804,1.14849529554825,66.0684191030396,0.35072042843732343,-48.0,-1420.3457759999997
221,64.48007347754452,0.9839382695796707,66.10221369081609,0.35072042843732343,-48.0,-1420.3457759999997
222,64.51386806532102,0.7363716277784775,66.13600827859258,0.35072042843732343,-48.0,-1420.3457759999997
223,64.5476626530975,0.5096974916156701,66.16980286636907,0.35072042843732343,-48.0,-1420.3457759999997
224,64.581457240874,0.33503806246800316,66.20359745414557,0.35072042843732343,-48.0,-1420.3457759999997
225,64.61525182865049,0.1701087579829639,66.23739204192205,0.35072042843732343,-48.0,-1420.3457759999997
226,64.64904641642698,-0.04382905726892651,66.27118662969855,0.35072042843732343,-48.0,-1420.3457759999997
227,64.68284100420347,-0.31605026196216096,66.30498121747503,0.35072042843732343,-48.0,-1420.3457759999997
228,64.71663559197997,-0.5833977497201778,66.33877580525153,0.35072042843732343,-48.0,-1420.3457759999997
229,64.75043017975645,-0.7434063397758632,66.37257039302801,0.35072042843732343,-48.0,-1420.3457759999997
230,64.78422476753295,-0.7135682758124188,66.40636498080451,0.35072042843732343,-48.0,-1420.3457759999997
231,64.81801935530943,-0.4740416765652766,66.440159568581,0.35072042843732343,-48.0,-1420.3457759999997
232,64.85181394308593,-0.07274703009471771,66.4739541563575,0.35072042843732343,-48.0,-1420.3457759999997
233,64.88560853086241,0.3960158366785669,66.50774874413398,0.35072042843732343,-48.0,-1420.3457759999997
234,64.91940311863891,0.816296119218238,66.54154333191047,0.35072042843732343,-48.0,-1420.3457759999997
235,64.9531977064154,1.0716190677216284,66.57533791968696,0.35072042843732343,-48.0,-1420.3457759999997
236,64.9869922941919,1.0735364426131206,66.60913250746346,0.35072042843732343,-48.0,-1420.3457759999997
